time,R,G,B
0,203.154,0.0,8.872
54,203.097,0.0,8.941
65,203.001,0.0,8.807
112,203.043,0.0,8.884
139,203.088,0.0,8.914
178,203.124,0.0,8.894
210,203.207,0.0,8.889
248,203.631,0.0,9.074
287,203.699,0.0,9.042
321,203.403,0.0,8.886
343,203.579,0.0,8.953
378,204.053,0.0,9.129
414,204.121,0.0,9.145
449,203.959,0.0,8.963
480,204.096,0.0,9.026
500,203.941,0.0,9.102
550,203.44,0.0,8.94
581,202.966,0.0,8.827
622,202.799,0.0,8.891
640,203.103,0.0,8.997
682,203.169,0.0,8.969
706,203.002,0.0,8.899
753,203.124,0.0,8.933
777,203.363,0.0,8.961
804,203.374,0.0,8.937
849,203.327,0.0,8.976
873,203.336,0.0,9.017
922,203.054,0.0,8.824
939,203.164,0.0,8.834
982,203.753,0.0,9.104
999,203.812,0.0,9.055
1037,204.008,0.0,9.147
1067,204.127,0.0,9.145
1121,203.894,0.0,9.043
1148,203.95,0.0,9.058
1178,204.361,0.0,9.015
1213,204.478,0.0,9.151
1230,204.193,0.0,9.054
1264,204.307,0.0,9.106
1297,204.074,0.0,9.021
1334,203.386,0.0,8.812
1390,203.2,0.0,8.908
1412,203.108,0.0,8.827
1444,203.152,0.0,8.91
1468,203.661,0.0,9.086
1511,204.686,0.0,9.321
1534,205.555,0.0,9.471
1581,206.285,0.0,9.649
1618,207.18,0.0,9.89
1634,207.936,0.0,10.093
1662,208.65,0.0,10.183
1714,209.774,0.0,10.559
1731,210.94,0.0,10.597
1783,210.937,0.0,10.669
1803,210.272,0.0,10.27
1851,209.433,0.0,9.852
1872,208.919,0.0,9.777
1912,208.388,0.0,9.596
1932,208.18,0.0,9.412
1984,208.109,0.0,9.445
2001,208.063,0.0,9.365
2054,208.015,0.0,9.366
2078,207.953,0.0,9.223
2124,207.765,0.0,9.32
2152,207.121,0.0,9.162
2191,206.566,0.0,9.044
2214,206.188,0.0,9.018
2234,206.031,0.0,9.128
2271,206.088,0.0,9.072
2317,205.993,0.0,8.965
2333,206.143,0.0,9.085
2387,206.198,0.0,9.045
2406,206.221,0.0,9.021
2445,206.529,0.0,9.133
2466,206.431,0.0,9.103
2506,206.007,0.0,8.989
2532,205.95,0.0,8.893
2573,206.205,0.0,9.043
2601,206.305,0.0,9.073
2637,206.555,0.0,9.128
2671,206.732,0.0,9.216
2719,206.742,0.0,9.073
2736,206.814,0.0,9.174
2780,206.95,0.0,9.143
2815,206.971,0.0,9.15
2832,207.015,0.0,9.156
2885,207.047,0.0,9.073
2903,206.967,0.0,9.034
2937,207.068,0.0,9.007
2988,206.778,0.0,9.068
3008,206.067,0.0,8.953
3036,205.411,0.0,8.775
3088,205.143,0.0,8.742
3105,205.326,0.0,8.874
3128,204.986,0.0,8.77
3199,204.995,0.0,8.742
3244,205.2,0.0,8.795
3267,205.225,0.0,8.818
3303,205.355,0.0,8.747
3333,205.374,0.0,8.791
3374,205.197,0.0,8.772
3404,205.38,0.0,8.819
3453,205.505,0.0,8.804
3478,205.579,0.0,8.806
3504,205.859,0.0,8.921
3552,205.945,0.0,8.887
3574,205.931,0.0,8.912
3614,206.036,0.0,8.975
3632,205.826,0.0,8.8
3669,205.87,0.0,8.832
3700,206.162,0.0,8.864
3736,206.225,0.0,8.848
3764,205.6,0.0,8.766
3799,205.029,0.0,8.7
3829,204.81,0.0,8.691
3872,204.459,0.0,8.629
3911,204.598,0.0,8.674
3928,204.635,0.0,8.664
3968,204.441,0.0,8.532
4021,204.516,0.0,8.563
4038,204.859,0.0,8.731
4071,204.896,0.0,8.756
4096,204.992,0.0,8.802
4141,205.074,0.0,8.709
4168,204.87,0.0,8.704
4239,204.994,0.0,8.724
4245,205.098,0.0,8.73
4275,205.254,0.0,8.803
4316,205.623,0.0,8.93
4344,205.678,0.0,8.916
4375,205.952,0.0,8.955
4404,206.047,0.0,8.936
4455,205.884,0.0,8.832
4485,206.015,0.0,8.907
4514,205.926,0.0,8.913
4548,205.908,0.0,8.87
4583,205.914,0.0,8.87
4599,205.37,0.0,8.801
4637,204.934,0.0,8.805
4664,204.945,0.0,8.83
4714,205.11,0.0,8.78
4753,205.225,0.0,8.804
4770,205.098,0.0,8.757
4805,205.155,0.0,8.799
4853,205.489,0.0,8.837
4876,205.433,0.0,8.806
4903,205.626,0.0,8.901
4959,205.605,0.0,8.952
4985,205.308,0.0,8.806
5017,205.342,0.0,8.813
5037,205.264,0.0,8.805
5071,205.321,0.0,8.832
5099,205.732,0.0,8.896
5141,205.728,0.0,8.94
5163,205.622,0.0,8.857
5197,205.702,0.0,8.821
5230,205.553,0.0,8.872
5266,205.64,0.0,8.868
5303,205.613,0.0,8.87
5334,204.963,0.0,8.798
5383,204.343,0.0,8.61
5398,204.039,0.0,8.546
5437,203.912,0.0,8.578
5462,204.004,0.0,8.603
5504,204.196,0.0,8.655
5531,204.528,0.0,8.782
5581,204.996,0.0,8.886
5598,205.289,0.0,9.009
5631,205.512,0.0,9.122
5665,205.771,0.0,9.175
5700,205.814,0.0,9.308
5750,206.176,0.0,9.392
5767,206.898,0.0,9.671
5808,207.138,0.0,9.797
5832,207.334,0.0,9.931
5871,207.402,0.0,9.907
5901,207.335,0.0,9.922
5956,207.484,0.0,9.97
5980,207.746,0.0,10.064
6002,207.824,0.0,10.069
6055,207.755,0.0,9.916
6073,207.757,0.0,9.86
6101,206.941,0.0,9.861
6157,206.219,0.0,9.741
6185,206.232,0.0,9.736
6208,206.094,0.0,9.676
6233,206.052,0.0,9.708
6281,206.162,0.0,9.795
6304,206.406,0.0,9.821
6324,206.278,0.0,9.818
6379,206.038,0.0,9.744
6405,206.001,0.0,9.718
6430,205.977,0.0,9.714
6484,205.964,0.0,9.657
6493,205.987,0.0,9.672
6548,206.153,0.0,9.711
6577,206.59,0.0,9.784
6593,206.99,0.0,9.871
6642,207.173,0.0,9.899
6677,207.548,0.0,9.897
6694,207.875,0.0,9.997
6728,207.955,0.0,9.915
6763,207.983,0.0,10.039
6797,207.799,0.0,9.919
6833,207.013,0.0,9.879
6863,206.054,0.0,9.652
6903,205.353,0.0,9.553
6923,205.163,0.0,9.47
6962,205.551,0.0,9.64
6997,205.735,0.0,9.671
7031,205.883,0.0,9.673
7064,206.063,0.0,9.668
7105,206.346,0.0,9.755
7129,206.366,0.0,9.859
7167,206.114,0.0,9.71
7195,206.173,0.0,9.755
7262,206.17,0.0,9.769
7278,206.274,0.0,9.726
7301,206.435,0.0,9.752
7324,206.587,0.0,9.745
7365,206.638,0.0,9.753
7399,206.703,0.0,9.817
7431,207.17,0.0,9.958
7471,207.312,0.0,9.98
7500,207.067,0.0,9.87
7529,207.036,0.0,9.902
7564,206.387,0.0,9.752
7598,205.581,0.0,9.58
7631,205.037,0.0,9.449
7665,204.948,0.0,9.469
7704,205.148,0.0,9.522
7734,205.478,0.0,9.534
7776,205.774,0.0,9.472
7802,205.653,0.0,9.236
7828,205.62,0.0,9.207
7878,205.275,0.0,9.149
7902,204.869,0.0,8.922
7924,204.639,0.0,8.874
7964,204.685,0.0,8.842
7996,204.748,0.0,8.819
8031,204.573,0.0,8.832
8066,204.71,0.0,8.796
8101,205.18,0.0,8.89
8129,205.207,0.0,8.956
8163,205.27,0.0,8.836
8199,205.296,0.0,8.931
8233,205.204,0.0,8.847
8272,205.334,0.0,8.824
8319,205.059,0.0,8.804
8336,204.297,0.0,8.728
8378,203.456,0.0,8.533
8397,203.094,0.0,8.475
8429,203.303,0.0,8.479
8462,203.389,0.0,8.553
8496,203.616,0.0,8.666
8528,203.658,0.0,8.636
8568,203.31,0.0,8.547
8589,203.356,0.0,8.551
8629,203.657,0.0,8.593
8668,203.553,0.0,8.631
8689,203.723,0.0,8.682
8731,203.756,0.0,8.657
8764,203.324,0.0,8.529
8802,203.403,0.0,8.507
8826,203.727,0.0,8.693
8872,203.805,0.0,8.554
8888,203.771,0.0,8.651
8932,203.733,0.0,8.639
8965,203.81,0.0,8.661
8999,203.968,0.0,8.62
9031,203.94,0.0,8.65
9064,204.153,0.0,8.627
9101,204.238,0.0,8.753
9137,203.485,0.0,8.566
9162,202.981,0.0,8.608
9199,202.641,0.0,8.494
9232,202.59,0.0,8.428
9284,202.598,0.0,8.438
9314,202.125,0.0,8.352
9350,202.206,0.0,8.326
9397,202.754,0.0,8.391
9433,202.668,0.0,8.377
9440,202.527,0.0,8.486
9471,202.479,0.0,8.386
9526,202.436,0.0,8.363
9533,202.607,0.0,8.503
9590,202.791,0.0,8.453
9594,202.948,0.0,8.476
9650,203.275,0.0,8.563
9689,203.449,0.0,8.649
9703,203.52,0.0,8.57
9735,203.654,0.0,8.66
9759,204.017,0.0,8.725
9803,204.152,0.0,8.75
9836,204.299,0.0,8.821
9888,204.529,0.0,8.766
9906,203.969,0.0,8.671
9938,203.203,0.0,8.568
9990,202.256,0.0,8.338
10003,201.993,0.0,8.391
10030,201.912,0.0,8.328
10064,201.973,0.0,8.363
10097,202.356,0.0,8.39
10124,202.451,0.0,8.401
10165,202.803,0.0,8.465
10198,202.843,0.0,8.505
10232,202.619,0.0,8.538
10279,202.681,0.0,8.474
10305,202.782,0.0,8.489
10334,202.893,0.0,8.527
10358,203.283,0.0,8.577
10401,203.461,0.0,8.649
10436,203.562,0.0,8.695
10457,203.754,0.0,8.698
10498,203.778,0.0,8.66
10533,203.887,0.0,8.723
10568,203.851,0.0,8.579
10587,203.895,0.0,8.569
10631,204.342,0.0,8.788
10667,204.546,0.0,8.791
10687,204.417,0.0,8.82
10733,204.199,0.0,8.73
10768,203.446,0.0,8.605
10793,202.688,0.0,8.532
10831,202.345,0.0,8.432
10868,202.281,0.0,8.465
10887,202.347,0.0,8.393
10942,202.465,0.0,8.507
10972,203.021,0.0,8.523
10987,203.178,0.0,8.633
11042,202.992,0.0,8.622
11066,203.082,0.0,8.621
11101,203.193,0.0,8.602
11133,203.269,0.0,8.559
11157,203.321,0.0,8.573
11200,203.486,0.0,8.672
11230,203.787,0.0,8.699
11268,203.993,0.0,8.777
11293,204.276,0.0,8.809
11335,204.371,0.0,8.838
11368,204.088,0.0,8.788
11393,204.265,0.0,8.868
11420,204.467,0.0,8.821
11470,204.59,0.0,8.825
11513,205.204,0.0,8.916
11529,205.372,0.0,8.95
11565,205.394,0.0,9.024
11587,205.494,0.0,8.993
11636,205.258,0.0,8.929
11656,204.225,0.0,8.748
11702,203.505,0.0,8.684
11726,203.226,0.0,8.596
11762,203.031,0.0,8.617
11783,203.325,0.0,8.744
11820,203.958,0.0,8.931
11863,204.327,0.0,8.987
11903,204.254,0.0,9.043
11918,204.642,0.0,9.164
11961,205.469,0.0,9.41
11998,205.714,0.0,9.593
12031,205.687,0.0,9.618
12065,205.651,0.0,9.747
12095,206.015,0.0,9.743
12131,206.163,0.0,9.923
12171,205.855,0.0,9.751
12186,205.971,0.0,9.703
12228,206.186,0.0,9.847
12268,206.231,0.0,9.821
12296,206.607,0.0,10.04
12337,206.584,0.0,10.02
12379,206.535,0.0,9.956
12405,206.532,0.0,9.874
12434,206.405,0.0,9.914
12451,206.403,0.0,9.885
12497,205.771,0.0,9.725
12533,204.751,0.0,9.575
12556,204.285,0.0,9.518
12599,204.066,0.0,9.46
12621,203.881,0.0,9.389
12671,203.894,0.0,9.379
12693,203.745,0.0,9.304
12730,203.729,0.0,9.334
12764,203.829,0.0,9.38
12781,203.775,0.0,9.354
12818,203.835,0.0,9.364
12865,203.962,0.0,9.427
12901,203.814,0.0,9.417
12934,204.034,0.0,9.396
12958,204.54,0.0,9.514
12999,204.728,0.0,9.546
13049,204.735,0.0,9.599
13094,204.865,0.0,9.531
13114,205.097,0.0,9.563
13168,205.578,0.0,9.676
13191,205.771,0.0,9.701
13230,206.046,0.0,9.797
13246,206.35,0.0,9.908
13296,206.071,0.0,9.787
13337,205.051,0.0,9.613
13362,204.2,0.0,9.424
13396,203.685,0.0,9.347
13429,203.359,0.0,9.273
13461,203.061,0.0,9.183
13494,203.253,0.0,9.277
13555,203.482,0.0,9.401
13579,203.518,0.0,9.347
13613,203.609,0.0,9.421
13641,203.457,0.0,9.335
13649,203.504,0.0,9.316
13699,203.855,0.0,9.393
13734,203.832,0.0,9.347
13759,203.924,0.0,9.347
13790,203.826,0.0,9.44
13830,203.62,0.0,9.312
13847,203.596,0.0,9.309
13900,203.118,0.0,9.133
13918,203.063,0.0,9.215
13972,203.42,0.0,9.308
13990,203.592,0.0,9.385
14013,204.034,0.0,9.409
14066,204.413,0.0,9.59
14084,204.429,0.0,9.665
14133,204.1,0.0,9.627
14154,203.053,0.0,9.288
14185,201.477,0.0,8.998
14237,200.015,0.0,8.644
14258,199.653,0.0,8.563
14285,199.652,0.0,8.612
14344,199.662,0.0,8.579
14347,200.42,0.0,8.779
14396,200.47,0.0,8.706
14413,199.979,0.0,8.657
14467,199.926,0.0,8.597
14489,200.432,0.0,8.786
14520,200.485,0.0,8.802
14570,200.407,0.0,8.708
14587,200.565,0.0,8.778
14618,200.888,0.0,8.837
14670,200.939,0.0,8.962
14688,200.994,0.0,8.946
14714,200.729,0.0,8.781
14756,200.55,0.0,8.824
14807,201.079,0.0,8.953
14832,201.774,0.0,9.036
14853,202.41,0.0,9.285
14903,203.005,0.0,9.296
14918,203.212,0.0,9.424
14950,202.813,0.0,9.416
14987,202.732,0.0,9.392
15014,202.878,0.0,9.431
15066,203.204,0.0,9.428
15097,203.783,0.0,9.71
15113,204.058,0.0,9.784
15149,204.026,0.0,9.608
15187,203.706,0.0,9.515
15223,203.438,0.0,9.454
15270,202.937,0.0,9.321
15293,202.78,0.0,9.333
15318,202.722,0.0,9.311
15371,202.853,0.0,9.343
15389,203.075,0.0,9.429
15428,203.205,0.0,9.406
15471,203.496,0.0,9.483
15486,203.448,0.0,9.454
15512,203.666,0.0,9.562
15568,204.34,0.0,9.677
15587,204.578,0.0,9.679
15617,204.685,0.0,9.761
15671,204.325,0.0,9.618
15689,203.438,0.0,9.511
15714,202.727,0.0,9.391
15751,202.597,0.0,9.416
15780,202.67,0.0,9.555
15813,202.94,0.0,9.43
15846,203.095,0.0,9.526
15897,202.913,0.0,9.498
15917,202.865,0.0,9.47
15950,202.838,0.0,9.353
15985,202.543,0.0,9.366
16020,202.013,0.0,9.19
16071,201.854,0.0,9.199
16088,202.282,0.0,9.239
16112,202.357,0.0,9.351
16146,202.19,0.0,9.234
16185,202.299,0.0,9.29
16237,202.281,0.0,9.182
16257,202.413,0.0,9.232
16290,202.728,0.0,9.36
16336,202.844,0.0,9.326
16376,203.129,0.0,9.342
16381,202.965,0.0,9.424
16413,201.907,0.0,9.247
16451,200.834,0.0,8.962
16485,200.324,0.0,8.983
16521,200.263,0.0,8.88
16571,200.575,0.0,9.006
16593,200.732,0.0,9.051
16619,200.64,0.0,8.956
16675,200.755,0.0,9.062
16701,201.101,0.0,9.183
16724,200.926,0.0,9.008
16754,200.888,0.0,9.124
16804,200.87,0.0,9.067
16828,201.451,0.0,9.173
16848,201.557,0.0,9.258
16888,201.02,0.0,9.153
16926,201.521,0.0,9.369
16960,201.626,0.0,9.297
16989,201.737,0.0,9.279
17013,201.773,0.0,9.266
17067,201.915,0.0,9.215
17089,202.065,0.0,9.278
17117,202.237,0.0,9.27
17170,201.814,0.0,9.224
17183,200.927,0.0,9.03
17213,200.035,0.0,8.881
17250,199.502,0.0,8.792
17281,199.782,0.0,8.85
17321,199.848,0.0,8.927
17372,199.641,0.0,8.843
17405,199.782,0.0,8.915
17410,200.11,0.0,9.017
17450,200.166,0.0,9.076
17502,200.169,0.0,8.975
17532,200.287,0.0,9.05
17550,200.254,0.0,8.971
17584,200.413,0.0,8.951
17615,200.772,0.0,9.035
17655,201.041,0.0,9.137
17681,201.252,0.0,9.155
17713,201.489,0.0,9.194
17747,201.656,0.0,9.274
17784,201.845,0.0,9.288
17819,201.589,0.0,9.143
17870,201.947,0.0,9.329
17883,202.691,0.0,9.449
17918,202.931,0.0,9.464
17970,202.609,0.0,9.382
17987,201.698,0.0,9.205
18011,200.994,0.0,9.12
18063,200.569,0.0,9.115
18080,200.785,0.0,9.136
18113,201.014,0.0,9.164
18146,201.024,0.0,9.124
18199,201.289,0.0,9.203
18221,201.917,0.0,9.361
18244,202.014,0.0,9.396
18277,201.301,0.0,9.129
18310,201.899,0.0,9.326
18362,202.06,0.0,9.428
18384,202.286,0.0,9.53
18437,202.019,0.0,9.354
18463,202.293,0.0,9.407
18484,202.896,0.0,9.606
18514,203.103,0.0,9.63
18552,202.949,0.0,9.557
18597,203.184,0.0,9.543
18614,203.312,0.0,9.56
18646,203.533,0.0,9.664
18688,203.876,0.0,9.753
18717,203.706,0.0,9.658
18754,202.831,0.0,9.509
18811,201.88,0.0,9.367
18825,201.119,0.0,9.142
18853,201.058,0.0,9.151
18905,201.436,0.0,9.209
18920,201.425,0.0,9.262
18969,201.582,0.0,9.278
18987,201.699,0.0,9.261
19021,202.121,0.0,9.401
19054,202.05,0.0,9.374
19084,202.058,0.0,9.333
19114,202.165,0.0,9.377
19146,202.176,0.0,9.425
19183,202.346,0.0,9.391
19216,202.169,0.0,9.412
19247,202.388,0.0,9.423
19288,202.487,0.0,9.354
19338,202.62,0.0,9.392
19357,202.987,0.0,9.601
19379,203.146,0.0,9.598
19411,203.168,0.0,9.526
19458,203.164,0.0,9.511
19494,202.643,0.0,9.529
19528,201.505,0.0,9.219
19561,200.7,0.0,9.131
19593,200.436,0.0,9.04
19627,200.172,0.0,8.923
19663,200.131,0.0,8.895
19699,200.592,0.0,9.076
19725,200.69,0.0,9.121
19759,200.633,0.0,9.072
19784,200.7,0.0,9.084
19813,200.588,0.0,9.023
19848,200.678,0.0,9.104
19879,200.784,0.0,9.109
19911,200.997,0.0,9.073
19955,201.637,0.0,9.334
19976,201.841,0.0,9.294
20022,202.053,0.0,9.331
20047,202.233,0.0,9.45
20083,201.895,0.0,9.306
20117,202.11,0.0,9.465
20151,202.531,0.0,9.397
20203,202.795,0.0,9.441
20217,202.913,0.0,9.493
20245,202.727,0.0,9.489
20287,202.0,0.0,9.278
20321,200.662,0.0,9.096
20347,200.032,0.0,8.968
20385,199.906,0.0,8.963
20415,199.696,0.0,8.853
20462,199.744,0.0,8.896
20480,200.416,0.0,9.069
20512,200.607,0.0,9.125
20546,200.906,0.0,9.089
20578,200.926,0.0,9.133
20613,200.528,0.0,8.989
20645,200.529,0.0,8.997
20682,200.635,0.0,9.079
20713,200.79,0.0,9.062
20746,200.771,0.0,9.108
20783,200.979,0.0,9.263
20805,201.224,0.0,9.144
20851,201.366,0.0,9.192
20877,201.645,0.0,9.288
20921,201.83,0.0,9.317
20950,201.997,0.0,9.318
20976,202.187,0.0,9.342
21032,202.609,0.0,9.412
21054,202.631,0.0,9.445
21087,201.693,0.0,9.232
21135,200.958,0.0,9.045
21167,201.031,0.0,9.165
21173,201.959,0.0,9.44
21215,203.095,0.0,9.586
21249,203.69,0.0,9.623
21284,203.699,0.0,9.539
21314,203.146,0.0,9.336
21360,202.669,0.0,9.191
21404,202.082,0.0,8.911
21424,201.23,0.0,8.594
21446,200.975,0.0,8.513
21486,201.205,0.0,8.564
21520,201.38,0.0,8.626
21544,201.297,0.0,8.646
21582,201.452,0.0,8.631
21615,201.74,0.0,8.661
21652,201.875,0.0,8.7
21675,202.128,0.0,8.751
21715,202.253,0.0,8.804
21750,202.27,0.0,8.863
21792,202.362,0.0,8.844
21806,202.79,0.0,8.859
21851,203.048,0.0,8.977
21878,202.6,0.0,8.803
21924,201.75,0.0,8.646
21946,200.939,0.0,8.558
21979,200.448,0.0,8.462
22002,200.697,0.0,8.597
22043,200.817,0.0,8.629
22076,200.831,0.0,8.554
22110,201.271,0.0,8.667
22143,201.763,0.0,8.779
22178,201.866,0.0,8.793
22214,201.802,0.0,8.716
22248,201.9,0.0,8.743
22283,201.911,0.0,8.713
22315,202.065,0.0,8.742
22345,202.739,0.0,8.961
22382,202.976,0.0,9.058
22418,202.78,0.0,8.819
22444,203.02,0.0,8.913
22496,203.182,0.0,8.924
22518,203.421,0.0,8.939
22539,203.785,0.0,9.098
22588,204.009,0.0,9.04
22619,204.14,0.0,9.033
22643,204.25,0.0,9.142
22693,203.637,0.0,9.025
22724,202.559,0.0,8.773
22742,202.114,0.0,8.696
22782,201.842,0.0,8.753
22814,201.428,0.0,8.613
22847,201.576,0.0,8.653
22873,202.103,0.0,8.786
22917,202.306,0.0,8.812
22952,202.108,0.0,8.765
22973,202.141,0.0,8.709
23021,202.375,0.0,8.82
23050,202.454,0.0,8.804
23072,202.586,0.0,8.917
23127,202.702,0.0,8.935
23155,202.817,0.0,8.883
23179,203.025,0.0,8.999
23225,203.147,0.0,8.904
23254,203.402,0.0,8.928
23272,203.747,0.0,9.042
23313,203.887,0.0,9.033
23349,204.132,0.0,9.094
23379,204.287,0.0,9.127
23405,204.548,0.0,9.108
23448,204.666,0.0,9.171
23481,204.247,0.0,9.097
23513,203.134,0.0,8.987
23548,202.263,0.0,8.745
23583,201.911,0.0,8.732
23615,201.719,0.0,8.677
23643,201.808,0.0,8.686
23680,201.881,0.0,8.733
23714,202.156,0.0,8.827
23749,202.372,0.0,8.867
23783,202.449,0.0,8.884
23815,202.618,0.0,8.815
23849,202.678,0.0,8.916
23883,202.717,0.0,8.85
23914,202.879,0.0,8.88
23946,203.338,0.0,9.078
23983,203.522,0.0,9.058
24009,203.599,0.0,9.019
24051,203.771,0.0,9.13
24084,203.993,0.0,9.067
24105,204.238,0.0,9.137
24154,204.62,0.0,9.22
24183,204.793,0.0,9.306
24216,204.535,0.0,9.164
24239,204.763,0.0,9.202
24282,205.022,0.0,9.235
24304,204.304,0.0,9.083
24351,203.224,0.0,8.906
24382,202.506,0.0,8.838
24404,202.311,0.0,8.789
24453,202.412,0.0,8.822
24476,202.683,0.0,8.891
24531,202.92,0.0,8.891
24555,202.996,0.0,8.867
24592,203.054,0.0,8.817
24609,203.07,0.0,8.98
24655,203.172,0.0,8.972
24684,203.126,0.0,8.96
24737,203.279,0.0,8.994
24754,203.958,0.0,9.12
24780,204.206,0.0,9.212
24811,204.114,0.0,9.161
24847,204.313,0.0,9.149
24884,204.742,0.0,9.211
24907,205.004,0.0,9.262
24948,205.095,0.0,9.325
24966,205.303,0.0,9.349
25014,205.563,0.0,9.443
25038,205.844,0.0,9.481
25091,206.007,0.0,9.477
25108,205.745,0.0,9.388
25153,204.54,0.0,9.176
25176,203.683,0.0,9.103
25226,203.369,0.0,8.929
25256,203.38,0.0,9.005
25299,204.074,0.0,9.173
25319,204.314,0.0,9.202
25343,204.32,0.0,9.222
25395,204.411,0.0,9.135
25431,204.689,0.0,9.266
25450,204.659,0.0,9.217
25480,204.57,0.0,9.295
25506,204.692,0.0,9.29
25577,204.554,0.0,9.164
25584,204.712,0.0,9.274
25608,205.092,0.0,9.347
25639,205.277,0.0,9.32
25708,205.5,0.0,9.403
25718,205.593,0.0,9.359
25772,205.702,0.0,9.43
25778,205.83,0.0,9.456
25804,205.752,0.0,9.47
25850,205.961,0.0,9.537
25877,205.74,0.0,9.348
25898,204.731,0.0,9.252
25939,203.725,0.0,9.081
25967,203.164,0.0,8.968
26021,202.969,0.0,8.951
26039,203.062,0.0,9.022
26081,203.557,0.0,9.122
26099,204.033,0.0,9.407
26139,204.497,0.0,9.429
26181,204.87,0.0,9.558
26215,205.143,0.0,9.703
26235,205.483,0.0,9.866
26286,205.859,0.0,10.056
26299,206.386,0.0,10.219
26336,206.62,0.0,10.301
26385,206.808,0.0,10.386
26407,206.507,0.0,10.378
26434,206.524,0.0,10.38
26487,207.047,0.0,10.499
26503,207.178,0.0,10.559
26564,207.286,0.0,10.56
26584,207.467,0.0,10.527
26618,207.706,0.0,10.646
26641,207.481,0.0,10.588
26686,206.448,0.0,10.37
26708,205.219,0.0,10.045
26730,204.614,0.0,10.102
26766,204.268,0.0,10.091
26816,204.183,0.0,10.064
26847,204.156,0.0,10.066
26890,203.856,0.0,9.936
26918,203.998,0.0,9.93
26936,204.072,0.0,9.946
26970,203.92,0.0,9.901
27017,203.603,0.0,9.786
27036,203.477,0.0,9.711
27083,203.365,0.0,9.747
27120,203.431,0.0,9.819
27136,203.979,0.0,9.942
27171,204.073,0.0,10.007
27220,204.043,0.0,9.894
27237,204.09,0.0,9.88
27285,204.086,0.0,9.911
27317,204.166,0.0,9.89
27341,204.29,0.0,9.923
27374,204.39,0.0,9.927
27416,204.764,0.0,10.089
27448,204.762,0.0,10.084
27473,203.868,0.0,9.906
27500,202.667,0.0,9.665
27539,201.527,0.0,9.386
27569,201.251,0.0,9.341
27614,201.818,0.0,9.557
27641,202.056,0.0,9.579
27668,202.11,0.0,9.58
27717,202.356,0.0,9.597
27734,202.334,0.0,9.608
27772,202.307,0.0,9.596
27820,202.333,0.0,9.591
27839,202.264,0.0,9.686
27885,202.547,0.0,9.68
27900,202.816,0.0,9.745
27931,202.802,0.0,9.736
27984,203.051,0.0,9.79
28004,203.514,0.0,9.883
28030,203.707,0.0,9.95
28064,204.0,0.0,9.943
28094,204.132,0.0,10.025
28129,204.243,0.0,9.987
28185,204.531,0.0,10.06
28229,204.349,0.0,9.988
28257,203.445,0.0,9.874
28284,202.366,0.0,9.594
28299,201.767,0.0,9.533
28351,201.652,0.0,9.472
28373,201.769,0.0,9.483
28397,202.021,0.0,9.634
28431,202.257,0.0,9.567
28462,202.492,0.0,9.692
28514,202.338,0.0,9.707
28532,201.942,0.0,9.487
28569,202.017,0.0,9.553
28600,202.153,0.0,9.593
28657,202.345,0.0,9.533
28685,202.471,0.0,9.703
28723,202.702,0.0,9.705
28739,203.003,0.0,9.813
28770,203.205,0.0,9.842
28798,203.812,0.0,9.911
28835,203.928,0.0,9.909
28888,203.592,0.0,9.891
28907,203.819,0.0,9.943
28928,203.981,0.0,9.903
28982,203.172,0.0,9.717
29014,202.009,0.0,9.565
29037,201.076,0.0,9.42
29088,200.725,0.0,9.292
29103,200.302,0.0,9.163
29134,200.344,0.0,9.22
29174,200.515,0.0,9.194
29221,200.784,0.0,9.346
29257,200.916,0.0,9.281
29283,200.937,0.0,9.309
29302,200.882,0.0,9.33
29355,201.019,0.0,9.378
29373,201.0,0.0,9.314
29400,200.576,0.0,9.182
29445,200.39,0.0,9.088
29483,199.959,0.0,9.019
29500,199.201,0.0,8.916
29547,198.612,0.0,8.714
29577,197.795,0.0,8.525
29608,196.912,0.0,8.436
29638,195.912,0.0,8.246
29688,194.94,0.0,8.081
29703,193.75,0.0,7.866
29726,192.176,0.0,7.629
29772,190.282,0.0,7.369
29804,188.94,0.0,7.029
29847,188.334,0.0,6.922
29868,187.865,0.0,6.787
29921,187.754,0.0,6.852
29937,188.282,0.0,7.026
29981,188.258,0.0,6.97
29998,188.268,0.0,7.013
30032,188.161,0.0,6.939
30072,187.806,0.0,6.831
30114,187.8,0.0,6.927
30135,188.164,0.0,6.927
30189,188.527,0.0,7.058
30204,188.777,0.0,7.125
30226,189.207,0.0,7.16
30268,189.623,0.0,7.203
30320,189.943,0.0,7.233
30338,190.471,0.0,7.479
30377,190.604,0.0,7.448
30399,190.997,0.0,7.499
30436,191.212,0.0,7.49
30471,190.59,0.0,7.451
30496,189.82,0.0,7.264
30539,188.949,0.0,7.107
30565,188.118,0.0,6.947
30608,187.471,0.0,6.823
30651,187.504,0.0,6.872
30678,188.189,0.0,7.046
30705,188.31,0.0,7.028
30742,188.004,0.0,7.04
30778,187.967,0.0,6.972
30815,187.821,0.0,6.92
30855,187.847,0.0,6.858
30886,188.004,0.0,6.912
30913,188.141,0.0,6.965
30940,188.593,0.0,7.078
30966,188.928,0.0,7.157
30997,189.086,0.0,7.068
31030,189.451,0.0,7.148
31067,189.995,0.0,7.341
31105,190.446,0.0,7.424
31146,191.02,0.0,7.545
31165,191.533,0.0,7.571
31200,191.735,0.0,7.567
31258,192.086,0.0,7.638
31286,192.05,0.0,7.712
31324,191.093,0.0,7.536
31339,189.972,0.0,7.331
31381,189.468,0.0,7.259
31398,189.324,0.0,7.152
31434,189.647,0.0,7.178
31476,190.161,0.0,7.26
31498,190.608,0.0,7.371
31541,191.006,0.0,7.539
31563,191.038,0.0,7.471
31614,190.469,0.0,7.453
31639,190.51,0.0,7.348
31657,191.046,0.0,7.51
31699,191.212,0.0,7.525
31731,191.325,0.0,7.506
31762,191.631,0.0,7.583
31797,191.979,0.0,7.723
31827,192.266,0.0,7.775
31862,192.794,0.0,7.816
31895,193.098,0.0,7.867
31931,193.21,0.0,7.828
31963,193.363,0.0,8.019
31995,192.888,0.0,7.839
32030,191.812,0.0,7.656
32064,190.732,0.0,7.32
32097,189.937,0.0,7.226
32129,189.666,0.0,7.24
32164,189.664,0.0,7.256
32200,189.905,0.0,7.292
32226,190.163,0.0,7.379
32264,190.638,0.0,7.507
32299,190.758,0.0,7.486
32330,190.7,0.0,7.479
32370,190.637,0.0,7.365
32399,190.316,0.0,7.34
32429,190.434,0.0,7.382
32470,190.579,0.0,7.382
32518,190.843,0.0,7.451
32536,191.082,0.0,7.471
32565,191.385,0.0,7.536
32601,191.967,0.0,7.634
32632,192.387,0.0,7.747
32677,192.592,0.0,7.802
32697,192.865,0.0,7.8
32733,192.848,0.0,7.729
32768,192.052,0.0,7.614
32799,190.428,0.0,7.3
32828,189.329,0.0,7.213
32870,189.608,0.0,7.237
32899,189.605,0.0,7.178
32937,189.466,0.0,7.317
32960,189.666,0.0,7.283
33002,190.04,0.0,7.229
33029,190.258,0.0,7.344
33069,190.335,0.0,7.456
33103,190.459,0.0,7.401
33124,190.659,0.0,7.461
33163,190.909,0.0,7.456
33196,191.072,0.0,7.588
33229,191.207,0.0,7.64
33266,191.105,0.0,7.575
33320,191.223,0.0,7.506
33337,191.516,0.0,7.624
33374,191.683,0.0,7.655
33397,192.034,0.0,7.688
33438,192.346,0.0,7.813
33470,192.266,0.0,7.805
33512,192.207,0.0,7.794
33534,191.261,0.0,7.489
33588,189.917,0.0,7.28
33601,189.058,0.0,7.131
33628,188.839,0.0,7.123
33685,188.899,0.0,7.093
33708,189.118,0.0,7.115
33729,189.824,0.0,7.34
33762,190.141,0.0,7.341
33796,189.946,0.0,7.377
33829,189.908,0.0,7.325
33865,190.312,0.0,7.389
33900,190.406,0.0,7.342
33940,190.63,0.0,7.432
33963,190.837,0.0,7.505
33997,190.799,0.0,7.472
34029,191.062,0.0,7.534
34065,191.634,0.0,7.688
34100,191.843,0.0,7.736
34128,192.179,0.0,7.868
34167,192.376,0.0,7.81
34219,192.408,0.0,7.723
34242,192.389,0.0,7.733
34268,191.343,0.0,7.563
34293,190.179,0.0,7.355
34347,189.225,0.0,7.16
34387,189.003,0.0,7.074
34407,189.629,0.0,7.246
34430,189.828,0.0,7.285
34462,189.957,0.0,7.292
34499,190.14,0.0,7.34
34528,190.12,0.0,7.375
34562,190.191,0.0,7.353
34597,189.825,0.0,7.155
34629,189.985,0.0,7.207
34672,190.794,0.0,7.374
34694,191.071,0.0,7.412
34731,191.221,0.0,7.55
34765,191.537,0.0,7.51
34802,191.578,0.0,7.547
34829,191.81,0.0,7.594
34864,192.008,0.0,7.59
34901,192.242,0.0,7.655
34928,192.5,0.0,7.608
34969,192.327,0.0,7.647
35003,191.126,0.0,7.41
35048,189.777,0.0,7.163
35069,189.132,0.0,7.098
35090,188.83,0.0,7.015
35128,188.634,0.0,7.078
35161,189.289,0.0,7.117
35195,189.508,0.0,7.232
35231,189.71,0.0,7.208
35268,189.596,0.0,7.196
35296,189.671,0.0,7.221
35326,189.838,0.0,7.214
35359,189.877,0.0,7.267
35397,189.736,0.0,7.136
35430,190.11,0.0,7.33
35465,190.621,0.0,7.375
35495,190.965,0.0,7.339
35530,191.099,0.0,7.401
35563,191.493,0.0,7.501
35595,191.671,0.0,7.56
35629,191.749,0.0,7.573
35665,192.083,0.0,7.554
35709,191.841,0.0,7.542
35729,190.673,0.0,7.347
35759,189.115,0.0,7.152
35794,187.678,0.0,6.798
35828,187.292,0.0,6.813
35865,187.276,0.0,6.74
35892,187.325,0.0,6.797
35951,187.998,0.0,6.914
35987,188.163,0.0,6.99
36001,187.88,0.0,6.951
36030,187.88,0.0,6.88
36063,188.179,0.0,6.964
36097,188.357,0.0,6.981
36132,188.496,0.0,6.958
36171,188.809,0.0,7.01
36192,188.992,0.0,7.022
36243,189.182,0.0,7.111
36267,189.821,0.0,7.248
36289,189.994,0.0,7.234
36334,190.1,0.0,7.255
36374,190.383,0.0,7.342
36391,190.891,0.0,7.468
36431,191.25,0.0,7.513
36469,190.687,0.0,7.354
36502,189.34,0.0,7.096
36525,188.417,0.0,6.96
36575,187.958,0.0,6.933
36605,188.098,0.0,6.977
36623,188.334,0.0,7.046
36663,188.661,0.0,7.049
36702,189.019,0.0,7.119
36739,189.425,0.0,7.193
36768,189.583,0.0,7.241
36809,189.598,0.0,7.24
36851,189.734,0.0,7.191
36891,189.663,0.0,7.226
36915,189.884,0.0,7.25
36952,190.573,0.0,7.377
36993,190.985,0.0,7.445
37000,191.573,0.0,7.514
37047,191.962,0.0,7.641
37065,192.017,0.0,7.666
37090,192.321,0.0,7.772
37129,192.8,0.0,7.673
37165,193.251,0.0,7.753
37199,193.039,0.0,7.772
37232,192.143,0.0,7.611
37273,190.895,0.0,7.418
37297,190.06,0.0,7.27
37330,190.133,0.0,7.271
37365,190.17,0.0,7.305
37399,190.39,0.0,7.293
37430,190.77,0.0,7.375
37471,191.109,0.0,7.478
37500,191.133,0.0,7.461
37525,190.966,0.0,7.439
37561,190.953,0.0,7.408
37596,191.039,0.0,7.491
37631,191.189,0.0,7.422
37664,191.26,0.0,7.444
37695,191.464,0.0,7.423
37749,191.685,0.0,7.523
37754,191.743,0.0,7.544
37796,192.1,0.0,7.603
37843,192.327,0.0,7.694
37869,192.253,0.0,7.659
37901,192.327,0.0,7.578
37922,192.177,0.0,7.586
37967,191.049,0.0,7.326
37990,189.489,0.0,7.116
38036,188.738,0.0,7.022
38070,188.73,0.0,7.031
38092,188.843,0.0,7.099
38143,189.174,0.0,7.0
38170,189.559,0.0,7.041
38188,189.88,0.0,7.169
38226,189.999,0.0,7.202
38260,190.086,0.0,7.269
38300,190.148,0.0,7.22
38321,190.159,0.0,7.223
38368,190.298,0.0,7.235
38390,190.735,0.0,7.309
38443,191.029,0.0,7.288
38470,191.032,0.0,7.384
38487,191.3,0.0,7.467
38526,191.75,0.0,7.558
38569,191.859,0.0,7.512
38590,192.359,0.0,7.626
38632,192.689,0.0,7.708
38667,192.474,0.0,7.663
38690,191.302,0.0,7.419
38739,189.785,0.0,7.062
38764,188.859,0.0,6.994
38799,188.516,0.0,6.966
38833,188.497,0.0,7.035
38865,188.985,0.0,7.118
38887,189.232,0.0,7.054
38935,189.249,0.0,7.017
38954,189.386,0.0,7.162
38997,189.362,0.0,7.076
39017,189.419,0.0,7.082
39051,189.534,0.0,7.124
39103,189.641,0.0,7.094
39125,189.865,0.0,7.244
39167,190.104,0.0,7.199
39187,190.849,0.0,7.356
39228,191.134,0.0,7.388
39265,191.085,0.0,7.463
39282,191.307,0.0,7.422
39339,191.542,0.0,7.439
39362,191.881,0.0,7.601
39400,191.999,0.0,7.472
39424,191.319,0.0,7.389
39449,190.142,0.0,7.255
39504,188.928,0.0,7.061
39521,188.155,0.0,6.917
39568,188.127,0.0,6.941
39604,188.585,0.0,6.961
39620,188.837,0.0,7.038
39664,189.027,0.0,7.036
39681,189.133,0.0,7.097
39726,189.077,0.0,7.025
39754,189.032,0.0,7.113
39789,188.933,0.0,7.06
39845,188.977,0.0,7.064
39848,189.221,0.0,7.03
39886,189.511,0.0,7.085
39929,189.627,0.0,7.148
39945,189.873,0.0,7.169
39998,189.991,0.0,7.192
40020,190.284,0.0,7.293
40049,190.716,0.0,7.336
40103,191.03,0.0,7.366
40137,191.838,0.0,7.569
40167,192.096,0.0,7.601
40195,190.849,0.0,7.355
40233,189.425,0.0,7.098
40254,188.395,0.0,6.96
40298,188.007,0.0,6.853
40321,187.943,0.0,6.846
40346,188.238,0.0,6.861
40398,189.06,0.0,7.047
40435,189.335,0.0,7.177
40459,189.434,0.0,7.115
40489,189.308,0.0,7.163
40533,189.268,0.0,7.163
40557,189.261,0.0,7.141
40598,188.721,0.0,6.968
40629,188.865,0.0,7.02
40646,189.671,0.0,7.126
40711,189.964,0.0,7.248
40729,190.055,0.0,7.247
40754,190.417,0.0,7.298
40783,190.256,0.0,7.225
40828,190.535,0.0,7.265
40851,191.205,0.0,7.455
40888,191.06,0.0,7.387
40932,189.648,0.0,7.014
40955,188.299,0.0,6.867
40985,187.793,0.0,6.782
41037,187.613,0.0,6.765
41085,188.14,0.0,6.915
41100,188.334,0.0,6.92
41129,188.502,0.0,6.943
41155,188.7,0.0,6.979
41203,188.902,0.0,7.028
41224,188.891,0.0,7.064
41262,188.595,0.0,6.968
41296,188.707,0.0,6.97
41319,188.908,0.0,7.019
41371,189.127,0.0,7.044
41393,189.509,0.0,7.1
41412,189.734,0.0,7.136
41466,189.903,0.0,7.121
41490,190.235,0.0,7.151
41517,190.718,0.0,7.293
41569,190.905,0.0,7.389
41587,190.723,0.0,7.275
41612,190.052,0.0,7.208
41664,188.66,0.0,7.054
41681,187.303,0.0,6.695
41729,186.855,0.0,6.599
41751,186.71,0.0,6.651
41806,186.667,0.0,6.694
41843,186.843,0.0,6.678
41869,187.518,0.0,6.798
41899,187.791,0.0,6.835
41938,187.59,0.0,6.838
41976,187.548,0.0,6.802
42010,187.58,0.0,6.817
42040,187.694,0.0,6.867
42067,187.749,0.0,6.811
42098,188.167,0.0,6.95
42132,188.921,0.0,6.983
42170,189.292,0.0,7.078
42190,189.587,0.0,7.19
42218,189.866,0.0,7.212
42270,189.819,0.0,7.115
42294,190.021,0.0,7.119
42314,190.304,0.0,7.202
42354,189.818,0.0,7.14
42388,187.951,0.0,6.859
42432,186.726,0.0,6.656
42454,186.378,0.0,6.544
42498,186.151,0.0,6.52
42533,186.15,0.0,6.506
42556,186.269,0.0,6.509
42594,186.602,0.0,6.564
42628,186.753,0.0,6.647
42665,187.169,0.0,6.639
42683,187.068,0.0,6.674
42713,186.445,0.0,6.524
42749,186.505,0.0,6.601
42785,186.719,0.0,6.632
42821,187.006,0.0,6.654
42860,187.804,0.0,6.914
42889,188.067,0.0,6.871
42913,188.152,0.0,6.931
42946,188.397,0.0,6.926
42987,188.789,0.0,6.966
43032,189.089,0.0,7.09
43051,189.381,0.0,7.123
43088,189.502,0.0,7.16
43111,188.549,0.0,6.965
43148,187.072,0.0,6.654
43187,186.274,0.0,6.629
43225,185.915,0.0,6.487
43248,185.627,0.0,6.452
43286,185.86,0.0,6.468
43335,186.265,0.0,6.53
43361,186.657,0.0,6.638
43388,186.952,0.0,6.7
43413,187.067,0.0,6.738
43458,187.469,0.0,6.807
43486,187.603,0.0,6.764
43535,187.587,0.0,6.814
43559,187.898,0.0,6.821
43589,188.267,0.0,6.908
43632,188.658,0.0,6.932
43653,189.234,0.0,7.096
43688,189.51,0.0,7.138
43710,189.881,0.0,7.206
43751,190.107,0.0,7.21
43787,190.21,0.0,7.206
43811,190.388,0.0,7.326
43861,190.427,0.0,7.374
43891,189.253,0.0,7.076
43912,187.243,0.0,6.711
43951,186.113,0.0,6.486
43985,186.142,0.0,6.55
44034,186.28,0.0,6.584
44056,186.315,0.0,6.507
44085,186.723,0.0,6.591
44136,186.873,0.0,6.671
44162,186.885,0.0,6.637
44184,186.754,0.0,6.641
44235,186.616,0.0,6.531
44254,187.015,0.0,6.657
44277,186.994,0.0,6.699
44328,187.194,0.0,6.736
44348,187.428,0.0,6.657
44403,187.473,0.0,6.674
44419,187.557,0.0,6.686
44445,188.321,0.0,6.849
44478,188.249,0.0,6.769
44529,187.732,0.0,6.702
44554,187.703,0.0,6.678
44581,187.44,0.0,6.694
44621,186.036,0.0,6.465
44668,184.434,0.0,6.165
44689,183.685,0.0,6.1
44710,183.537,0.0,6.061
44747,183.691,0.0,6.07
44783,184.26,0.0,6.134
44814,184.746,0.0,6.205
44860,185.385,0.0,6.367
44883,185.547,0.0,6.391
44916,185.406,0.0,6.334
44950,185.264,0.0,6.36
45002,184.994,0.0,6.21
45018,185.072,0.0,6.186
45066,184.847,0.0,6.173
45083,184.971,0.0,6.211
45113,185.657,0.0,6.37
45155,185.926,0.0,6.375
45189,186.037,0.0,6.506
45213,186.384,0.0,6.546
45246,186.533,0.0,6.441
45282,185.584,0.0,6.259
45313,184.086,0.0,6.088
45349,182.862,0.0,5.83
45383,182.135,0.0,5.693
45409,181.981,0.0,5.648
45447,182.2,0.0,5.782
45483,182.441,0.0,5.807
45516,182.398,0.0,5.757
45571,182.516,0.0,5.826
45585,182.833,0.0,5.853
45615,182.851,0.0,5.865
45674,183.057,0.0,6.037
45688,183.182,0.0,6.021
45708,183.614,0.0,6.067
45748,183.883,0.0,6.135
45793,183.582,0.0,6.027
45816,183.735,0.0,6.01
45871,184.4,0.0,6.124
45899,184.637,0.0,6.161
45919,184.734,0.0,6.251
45945,184.469,0.0,6.179
45979,182.674,0.0,5.901
46009,181.119,0.0,5.617
46050,180.204,0.0,5.429
46076,179.783,0.0,5.365
46128,179.959,0.0,5.41
46146,180.129,0.0,5.444
46181,180.447,0.0,5.487
46209,180.759,0.0,5.554
46253,181.006,0.0,5.65
46284,181.102,0.0,5.649
46304,180.774,0.0,5.601
46345,180.856,0.0,5.607
46386,181.211,0.0,5.704
46410,181.484,0.0,5.718
46453,181.865,0.0,5.728
46483,182.125,0.0,5.86
46534,182.357,0.0,5.904
46559,182.551,0.0,5.927
46588,182.917,0.0,5.904
46610,183.151,0.0,5.956
46650,183.04,0.0,5.954
46687,181.657,0.0,5.759
46731,179.892,0.0,5.352
46753,179.147,0.0,5.271
46783,178.884,0.0,5.3
46805,179.018,0.0,5.325
46851,179.79,0.0,5.569
46876,180.079,0.0,5.565
46941,179.822,0.0,5.437
46963,179.884,0.0,5.449
46999,179.959,0.0,5.42
47042,179.99,0.0,5.427
47054,179.902,0.0,5.454
47101,179.996,0.0,5.485
47138,180.414,0.0,5.518
47168,180.579,0.0,5.599
47199,180.475,0.0,5.559
47231,180.781,0.0,5.544
47248,181.248,0.0,5.698
47271,181.443,0.0,5.74
47331,181.504,0.0,5.649
47347,181.657,0.0,5.701
47390,181.056,0.0,5.566
47428,179.571,0.0,5.364
47449,178.399,0.0,5.136
47472,177.953,0.0,5.093
47514,177.891,0.0,5.19
47548,178.136,0.0,5.14
47578,178.758,0.0,5.246
47611,179.083,0.0,5.354
47652,178.962,0.0,5.317
47681,178.975,0.0,5.285
47710,178.803,0.0,5.252
47748,178.858,0.0,5.316
47776,179.205,0.0,5.349
47810,179.369,0.0,5.324
47845,179.313,0.0,5.322
47885,179.663,0.0,5.378
47914,180.349,0.0,5.565
47949,180.654,0.0,5.624
48007,181.016,0.0,5.64
48034,181.262,0.0,5.615
48050,181.329,0.0,5.659
48080,181.477,0.0,5.746
48111,181.024,0.0,5.65
48152,180.205,0.0,5.449
48199,179.297,0.0,5.329
48217,178.334,0.0,5.154
48248,178.064,0.0,5.099
48268,178.245,0.0,5.082
48313,178.778,0.0,5.346
48351,179.288,0.0,5.398
48385,179.417,0.0,5.349
48408,179.554,0.0,5.391
48453,179.794,0.0,5.453
48481,179.799,0.0,5.424
48531,179.723,0.0,5.392
48551,179.903,0.0,5.451
48581,180.222,0.0,5.521
48624,180.521,0.0,5.534
48648,180.616,0.0,5.533
48679,180.991,0.0,5.626
48719,181.429,0.0,5.623
48737,181.769,0.0,5.767
48781,182.299,0.0,5.921
48819,182.722,0.0,5.937
48838,183.117,0.0,6.022
48879,183.443,0.0,6.008
48915,182.54,0.0,5.895
48946,181.352,0.0,5.669
48979,180.722,0.0,5.588
49029,180.553,0.0,5.656
49047,181.098,0.0,5.654
49076,181.545,0.0,5.713
49109,181.405,0.0,5.713
49147,181.865,0.0,5.748
49180,182.485,0.0,5.922
49217,182.601,0.0,5.896
49270,182.751,0.0,5.903
49284,182.956,0.0,5.945
49311,183.403,0.0,6.134
49346,183.78,0.0,6.216
49382,184.394,0.0,6.2
49412,184.883,0.0,6.244
49450,184.666,0.0,6.277
49480,185.029,0.0,6.325
49515,185.635,0.0,6.361
49550,185.857,0.0,6.439
49571,185.688,0.0,6.364
49619,185.526,0.0,6.311
49650,184.983,0.0,6.283
49672,183.758,0.0,6.041
49719,183.095,0.0,5.943
49750,182.916,0.0,5.933
49772,182.514,0.0,5.822
49819,182.768,0.0,5.891
49855,183.579,0.0,6.074
49878,183.697,0.0,6.054
49921,183.686,0.0,5.959
49961,183.633,0.0,6.033
49990,183.486,0.0,5.962
50020,183.707,0.0,5.992
50043,184.414,0.0,6.139
50083,184.808,0.0,6.257
50113,184.908,0.0,6.246
50154,185.324,0.0,6.301
50180,185.998,0.0,6.512
50202,186.409,0.0,6.536
50249,186.859,0.0,6.592
50273,187.228,0.0,6.667
50320,187.076,0.0,6.619
50343,185.858,0.0,6.406
50377,184.429,0.0,6.143
50410,183.838,0.0,6.017
50446,183.38,0.0,5.921
50482,183.507,0.0,5.948
50513,184.311,0.0,6.168
50548,184.702,0.0,6.238
50580,184.78,0.0,6.158
50612,184.85,0.0,6.096
50632,184.899,0.0,6.214
50686,184.887,0.0,6.254
50713,184.722,0.0,6.154
50731,184.891,0.0,6.192
50791,185.028,0.0,6.263
50810,185.16,0.0,6.34
50846,185.382,0.0,6.252
50882,185.586,0.0,6.36
50912,185.872,0.0,6.294
50948,186.156,0.0,6.387
50976,186.487,0.0,6.455
50997,186.203,0.0,6.407
51054,184.544,0.0,6.136
51087,183.229,0.0,5.875
51110,182.476,0.0,5.719
51151,182.252,0.0,5.69
51187,182.719,0.0,5.902
51205,182.917,0.0,5.984
51242,182.825,0.0,5.818
51278,182.921,0.0,5.902
51314,183.081,0.0,5.919
51353,183.088,0.0,5.874
51376,183.514,0.0,5.975
51412,183.717,0.0,5.962
51447,183.883,0.0,6.07
51484,184.216,0.0,6.065
51507,184.495,0.0,6.143
51556,184.78,0.0,6.231
51588,184.859,0.0,6.149
51608,185.109,0.0,6.223
51643,185.46,0.0,6.299
51677,185.747,0.0,6.296
51711,185.46,0.0,6.289
51748,184.645,0.0,6.134
51786,183.434,0.0,5.923
51809,182.649,0.0,5.725
51832,182.389,0.0,5.795
51886,182.436,0.0,5.739
51902,182.936,0.0,5.869
51945,183.263,0.0,5.946
51973,183.676,0.0,5.9
52010,183.851,0.0,5.966
52035,183.859,0.0,5.949
52079,183.948,0.0,6.008
52114,183.947,0.0,5.976
52153,184.246,0.0,6.02
52174,184.539,0.0,6.046
52222,184.73,0.0,6.106
52244,185.564,0.0,6.352
52278,186.862,0.0,6.564
52301,188.922,0.0,6.92
52350,190.14,0.0,7.035
52371,189.698,0.0,6.888
52398,189.328,0.0,6.648
52452,189.186,0.0,6.602
52476,188.025,0.0,6.321
52520,185.714,0.0,5.836
52549,184.589,0.0,5.7
52577,184.449,0.0,5.589
52615,184.546,0.0,5.649
52648,184.808,0.0,5.688
52670,185.088,0.0,5.778
52711,185.391,0.0,5.856
52745,185.38,0.0,5.81
52770,185.088,0.0,5.822
52812,185.032,0.0,5.803
52837,185.121,0.0,5.838
52885,185.288,0.0,5.857
52908,186.206,0.0,5.962
52934,186.338,0.0,6.058
52985,186.092,0.0,6.047
53025,186.217,0.0,5.995
53049,186.217,0.0,5.997
53084,186.424,0.0,5.989
53122,186.608,0.0,6.118
53163,186.964,0.0,6.087
53197,187.75,0.0,6.343
53228,188.209,0.0,6.447
53239,187.856,0.0,6.297
53268,186.846,0.0,6.104
53305,185.725,0.0,5.906
53345,185.534,0.0,5.934
53379,185.947,0.0,5.928
53397,186.347,0.0,6.01
53453,186.611,0.0,6.083
53481,186.851,0.0,6.1
53502,187.32,0.0,6.17
53544,187.294,0.0,6.061
53581,186.822,0.0,6.079
53605,186.949,0.0,6.154
53634,187.07,0.0,6.119
53681,187.299,0.0,6.169
53701,187.92,0.0,6.239
53732,188.277,0.0,6.382
53785,188.649,0.0,6.383
53805,189.144,0.0,6.467
53847,189.552,0.0,6.505
53869,189.82,0.0,6.606
53908,190.387,0.0,6.695
53947,190.21,0.0,6.6
53968,188.799,0.0,6.43
54012,187.69,0.0,6.224
54034,186.974,0.0,6.143
54089,187.114,0.0,6.211
54120,187.918,0.0,6.398
54152,188.344,0.0,6.343
54169,188.784,0.0,6.439
54211,189.195,0.0,6.505
54226,189.473,0.0,6.612
54276,189.985,0.0,6.696
54299,190.565,0.0,6.698
54344,191.239,0.0,6.809
54379,192.15,0.0,7.05
54410,192.573,0.0,7.12
54429,192.825,0.0,7.097
54469,193.107,0.0,7.173
54529,192.966,0.0,7.134
54530,193.237,0.0,7.155
54568,193.842,0.0,7.317
54595,194.024,0.0,7.365
54629,193.893,0.0,7.328
54664,193.21,0.0,7.134
54714,191.645,0.0,6.821
54732,190.636,0.0,6.724
54763,190.284,0.0,6.625
54817,190.249,0.0,6.6
54837,190.603,0.0,6.706
54868,190.831,0.0,6.818
54910,191.256,0.0,6.86
54930,191.66,0.0,6.981
54987,191.578,0.0,6.942
55000,191.658,0.0,6.913
55046,191.554,0.0,6.908
55069,191.644,0.0,6.899
55095,192.035,0.0,6.951
55129,192.21,0.0,7.011
55171,192.705,0.0,7.121
55215,192.922,0.0,7.123
55236,192.866,0.0,7.098
55275,193.058,0.0,7.14
55311,193.179,0.0,7.199
55334,193.41,0.0,7.247
55386,193.647,0.0,7.272
55400,193.112,0.0,7.178
55431,192.051,0.0,6.942
55487,191.143,0.0,6.803
55504,190.325,0.0,6.565
55542,190.259,0.0,6.679
55577,190.879,0.0,6.78
55610,190.879,0.0,6.766
55626,190.721,0.0,6.767
55678,190.77,0.0,6.716
55697,190.758,0.0,6.75
55732,190.642,0.0,6.714
55784,190.562,0.0,6.68
55803,190.644,0.0,6.706
55846,190.969,0.0,6.75
55867,191.195,0.0,6.823
55895,191.519,0.0,6.919
55930,191.778,0.0,6.946
55978,191.98,0.0,6.981
56010,192.125,0.0,7.051
56035,192.191,0.0,6.942
56064,192.375,0.0,6.995
56118,192.502,0.0,6.985
56136,192.522,0.0,7.098
56179,192.016,0.0,6.924
56196,190.79,0.0,6.688
56239,190.101,0.0,6.688
56274,189.788,0.0,6.602
56309,189.45,0.0,6.54
56327,189.548,0.0,6.525
56378,189.747,0.0,6.541
56410,189.772,0.0,6.544
56445,190.106,0.0,6.647
56479,189.992,0.0,6.659
56511,189.902,0.0,6.656
56548,189.816,0.0,6.611
56580,189.52,0.0,6.614
56596,189.594,0.0,6.582
56648,189.679,0.0,6.538
56669,189.792,0.0,6.521
56709,189.802,0.0,6.51
56749,189.881,0.0,6.573
56765,190.115,0.0,6.631
56797,190.362,0.0,6.716
56842,190.813,0.0,6.871
56877,191.261,0.0,6.854
56893,192.016,0.0,7.088
56930,192.424,0.0,7.205
56985,191.718,0.0,7.185
57007,191.355,0.0,7.164
57056,191.696,0.0,7.229
57065,192.053,0.0,7.394
57118,192.182,0.0,7.367
57153,192.093,0.0,7.354
57198,192.272,0.0,7.433
57226,192.472,0.0,7.491
57235,192.552,0.0,7.577
57281,192.638,0.0,7.547
57313,192.71,0.0,7.565
57347,192.885,0.0,7.589
57379,193.19,0.0,7.702
57396,193.337,0.0,7.693
57431,193.488,0.0,7.671
57484,193.869,0.0,7.689
57502,193.981,0.0,7.735
57524,193.91,0.0,7.719
57562,193.975,0.0,7.689
57597,194.028,0.0,7.735
57646,194.085,0.0,7.749
57668,194.162,0.0,7.771
57693,193.378,0.0,7.581
57732,192.26,0.0,7.332
57766,191.911,0.0,7.3
57790,191.896,0.0,7.328
57845,191.969,0.0,7.359
57863,192.35,0.0,7.406
57912,192.937,0.0,7.429
57954,193.379,0.0,7.558
57956,193.529,0.0,7.605
58003,193.642,0.0,7.685
58025,194.231,0.0,7.89
58061,194.442,0.0,7.827
58096,194.485,0.0,7.846
58141,194.899,0.0,7.874
58184,195.033,0.0,7.884
58215,195.429,0.0,7.971
58237,195.763,0.0,7.995
58268,196.207,0.0,8.099
58307,196.67,0.0,8.174
58348,197.107,0.0,8.236
58368,197.303,0.0,8.356
58391,197.413,0.0,8.379
58426,197.071,0.0,8.321
58460,196.013,0.0,8.148
58498,194.953,0.0,7.865
58525,194.906,0.0,7.868
58564,195.45,0.0,7.994
58599,195.674,0.0,8.056
58657,195.802,0.0,7.991
58675,196.068,0.0,8.08
58692,196.448,0.0,8.248
58747,196.644,0.0,8.284
58767,196.752,0.0,8.262
58792,196.918,0.0,8.245
58844,196.831,0.0,8.148
58860,197.031,0.0,8.239
58892,197.738,0.0,8.485
58926,198.087,0.0,8.569
58964,198.126,0.0,8.47
59018,198.379,0.0,8.587
59036,198.732,0.0,8.622
59066,198.99,0.0,8.676
59115,199.211,0.0,8.74
59136,199.39,0.0,8.732
59164,198.774,0.0,8.676
59217,197.6,0.0,8.34
59239,196.941,0.0,8.353
59278,196.648,0.0,8.216
59295,196.479,0.0,8.27
59328,196.687,0.0,8.21
59359,197.33,0.0,8.38
59393,197.495,0.0,8.406
59428,197.448,0.0,8.402
59464,197.456,0.0,8.429
59514,197.411,0.0,8.378
59532,197.404,0.0,8.403
59561,197.403,0.0,8.374
59595,197.484,0.0,8.356
59631,197.615,0.0,8.418
59685,197.722,0.0,8.41
59706,198.026,0.0,8.468
59733,198.136,0.0,8.523
59772,198.038,0.0,8.47
59789,198.217,0.0,8.474
59825,198.59,0.0,8.622
59859,198.791,0.0,8.668
59891,198.694,0.0,8.524
59926,197.673,0.0,8.378
59976,196.59,0.0,8.19
60001,196.199,0.0,8.115
60020,196.252,0.0,8.177
60060,196.48,0.0,8.198
60115,196.993,0.0,8.302
60146,197.204,0.0,8.325
60163,196.84,0.0,8.265
60193,196.863,0.0,8.264
60240,197.055,0.0,8.281
60260,197.062,0.0,8.298
60297,197.166,0.0,8.301
60333,197.317,0.0,8.357
60377,197.296,0.0,8.296
60393,197.473,0.0,8.354
60428,197.847,0.0,8.487
60472,198.063,0.0,8.486
60524,197.945,0.0,8.458
60525,198.11,0.0,8.492
60558,198.217,0.0,8.505
60592,198.404,0.0,8.54
60627,198.696,0.0,8.603
60669,197.948,0.0,8.474
60697,197.023,0.0,8.297
60754,196.403,0.0,8.195
60773,196.163,0.0,8.1
60803,196.36,0.0,8.104
60821,196.52,0.0,8.168
60859,196.778,0.0,8.19
60893,197.022,0.0,8.251
60927,197.064,0.0,8.233
60961,196.891,0.0,8.256
60990,196.766,0.0,8.202
61024,197.077,0.0,8.324
61067,197.131,0.0,8.357
61087,196.834,0.0,8.24
61129,196.896,0.0,8.227
61186,197.05,0.0,8.353
61200,197.174,0.0,8.319
61230,197.506,0.0,8.434
61257,197.644,0.0,8.41
61299,197.682,0.0,8.385
61332,197.785,0.0,8.394
61358,197.254,0.0,8.245
61410,196.203,0.0,8.106
61426,195.299,0.0,7.942
61464,194.826,0.0,7.799
61492,195.029,0.0,7.893
61530,195.202,0.0,7.901
61566,195.48,0.0,8.029
61590,195.993,0.0,8.176
61638,196.097,0.0,8.211
61659,196.023,0.0,8.117
61706,195.553,0.0,8.018
61729,195.467,0.0,7.894
61783,195.474,0.0,7.973
61799,195.568,0.0,7.978
61832,195.612,0.0,8.043
61854,195.787,0.0,8.036
61906,196.278,0.0,8.095
61933,196.427,0.0,8.174
61965,196.517,0.0,8.133
62015,196.692,0.0,8.186
62032,197.057,0.0,8.253
62060,197.035,0.0,8.251
62092,195.969,0.0,8.068
62123,194.837,0.0,7.814
62157,194.281,0.0,7.692
62192,194.252,0.0,7.755
62235,194.229,0.0,7.735
62263,194.525,0.0,7.837
62320,195.455,0.0,8.089
62346,195.733,0.0,8.032
62379,195.391,0.0,7.835
62395,195.395,0.0,7.923
62435,195.399,0.0,7.97
62456,195.564,0.0,8.033
62492,195.535,0.0,7.901
62532,195.751,0.0,8.002
62563,195.961,0.0,8.021
62585,196.219,0.0,8.057
62625,197.016,0.0,8.282
62662,197.249,0.0,8.299
62693,197.22,0.0,8.263
62726,197.447,0.0,8.342
62764,198.02,0.0,8.535
62790,197.936,0.0,8.438
62827,196.662,0.0,8.196
62865,195.784,0.0,8.026
62893,195.827,0.0,8.05
62936,195.955,0.0,8.166
62963,196.115,0.0,8.147
62987,196.501,0.0,8.241
63023,196.958,0.0,8.346
63056,197.125,0.0,8.329
63089,196.96,0.0,8.306
63165,196.997,0.0,8.305
63166,197.107,0.0,8.322
63212,196.992,0.0,8.28
63251,196.983,0.0,8.22
63261,197.114,0.0,8.294
63312,197.477,0.0,8.375
63348,197.646,0.0,8.36
63379,197.763,0.0,8.45
63411,197.96,0.0,8.46
63451,197.88,0.0,8.496
63457,198.105,0.0,8.467
63493,197.514,0.0,8.279
63533,196.339,0.0,8.079
63554,195.822,0.0,8.101
63598,195.58,0.0,8.011
63632,195.7,0.0,8.039
63682,196.007,0.0,8.167
63710,196.203,0.0,8.155
63750,196.507,0.0,8.103
63765,196.928,0.0,8.291
63789,196.923,0.0,8.226
63827,196.583,0.0,8.238
63861,196.667,0.0,8.221
63898,196.783,0.0,8.197
63920,197.054,0.0,8.236
63957,197.424,0.0,8.409
63992,197.633,0.0,8.453
64035,197.992,0.0,8.521
64059,198.149,0.0,8.574
64091,198.518,0.0,8.615
64125,198.735,0.0,8.667
64154,197.746,0.0,8.428
64191,196.397,0.0,8.175
64226,195.495,0.0,7.996
64266,194.965,0.0,7.902
64296,195.006,0.0,7.902
64321,195.125,0.0,7.914
64363,195.159,0.0,7.923
64399,195.344,0.0,7.997
64421,195.385,0.0,8.017
64460,195.384,0.0,7.965
64485,195.421,0.0,8.107
64527,195.359,0.0,7.959
64561,195.008,0.0,7.918
64595,195.097,0.0,7.904
64625,195.584,0.0,8.038
64667,195.613,0.0,8.156
64688,195.669,0.0,8.064
64728,195.778,0.0,8.007
64752,195.984,0.0,8.2
64794,196.09,0.0,8.218
64826,196.282,0.0,8.117
64861,195.354,0.0,7.932
64889,193.757,0.0,7.738
64929,192.715,0.0,7.524
64968,191.867,0.0,7.309
64989,191.816,0.0,7.352
65027,191.948,0.0,7.41
65067,192.097,0.0,7.38
65110,192.582,0.0,7.504
65129,192.654,0.0,7.516
65159,192.308,0.0,7.439
65195,192.251,0.0,7.36
65228,192.486,0.0,7.495
65257,192.581,0.0,7.489
65297,192.507,0.0,7.506
65332,192.712,0.0,7.515
65355,193.268,0.0,7.65
65399,193.483,0.0,7.736
65419,193.474,0.0,7.687
65463,193.657,0.0,7.756
65498,193.846,0.0,7.742
65523,193.99,0.0,7.757
65558,193.709,0.0,7.642
65597,192.325,0.0,7.436
65629,191.438,0.0,7.321
65653,190.989,0.0,7.28
65694,191.15,0.0,7.298
65731,191.358,0.0,7.311
65782,191.351,0.0,7.286
65798,191.619,0.0,7.333
65826,192.064,0.0,7.506
65863,192.073,0.0,7.558
65891,191.765,0.0,7.363
65926,191.827,0.0,7.359
65956,191.592,0.0,7.353
65989,191.776,0.0,7.307
66024,192.308,0.0,7.486
66056,192.546,0.0,7.552
66090,192.873,0.0,7.648
66129,193.094,0.0,7.675
66172,192.719,0.0,7.42
66187,192.927,0.0,7.565
66225,193.736,0.0,7.732
66257,193.99,0.0,7.812
66288,193.156,0.0,7.621
66327,191.897,0.0,7.362
66370,191.447,0.0,7.377
66393,191.051,0.0,7.288
66432,190.666,0.0,7.148
66445,190.978,0.0,7.246
66500,191.51,0.0,7.315
66522,191.877,0.0,7.433
66565,192.567,0.0,7.581
66596,192.712,0.0,7.607
66623,192.747,0.0,7.584
66658,192.969,0.0,7.613
66693,193.11,0.0,7.66
66732,193.409,0.0,7.723
66750,193.543,0.0,7.73
66789,193.9,0.0,7.785
66827,194.264,0.0,7.958
66850,194.635,0.0,8.013
66889,195.081,0.0,8.051
66933,195.337,0.0,8.163
66948,195.501,0.0,8.105
66997,195.852,0.0,8.224
67034,196.116,0.0,8.221
67057,195.491,0.0,8.045
67085,194.197,0.0,7.821
67132,193.398,0.0,7.674
67178,193.488,0.0,7.813
67197,193.668,0.0,7.797
67235,194.138,0.0,7.962
67252,194.587,0.0,7.978
67291,194.78,0.0,7.932
67326,194.877,0.0,8.038
67358,194.947,0.0,8.021
67381,195.013,0.0,8.073
67434,194.932,0.0,8.004
67459,195.088,0.0,8.025
67482,195.333,0.0,8.138
67533,195.595,0.0,8.18
67556,195.788,0.0,8.211
67581,196.032,0.0,8.278
67634,196.13,0.0,8.201
67658,196.361,0.0,8.207
67681,196.744,0.0,8.378
67731,196.989,0.0,8.337
67750,197.051,0.0,8.39
67795,196.017,0.0,8.126
67813,194.413,0.0,7.947
67856,193.571,0.0,7.85
67890,193.584,0.0,7.828
67909,193.723,0.0,7.696
67943,194.035,0.0,7.862
67998,194.355,0.0,7.98
68027,194.448,0.0,7.972
68062,194.448,0.0,7.967
68096,194.288,0.0,7.898
