time,R,G,B
0,234.478,1.908,34.278
34,234.843,2.317,34.788
67,234.378,2.28,34.358
100,233.941,2.041,33.736
134,233.953,2.08,33.811
167,234.068,2.05,33.858
200,233.553,1.876,33.462
234,234.365,2.164,34.292
267,234.348,2.243,34.328
300,233.965,2.229,34.166
334,233.874,2.115,33.876
367,233.856,2.054,33.835
400,234.039,2.144,34.126
434,234.113,2.236,34.274
467,233.801,2.367,34.196
500,233.871,2.669,34.622
534,207.376,0.917,21.476
567,207.364,1.079,21.892
600,207.217,1.157,21.975
634,213.078,1.65,25.069
667,211.223,1.306,23.523
700,211.346,1.326,23.562
734,211.101,1.145,23.218
767,210.838,0.966,22.853
800,210.688,0.876,22.667
834,210.68,0.827,22.59
867,210.649,0.788,22.514
900,210.649,0.755,22.436
934,210.671,0.716,22.382
967,210.749,0.708,22.404
1000,210.696,0.675,22.308
1034,210.701,0.66,22.277
1067,210.803,0.647,22.328
1100,210.939,0.637,22.349
1134,211.027,0.607,22.307
1167,210.965,0.557,22.107
1200,211.175,0.532,22.207
1234,211.469,0.571,22.411
1267,211.257,0.574,22.217
1300,210.796,0.554,21.887
1334,210.468,0.522,21.693
1367,210.466,0.503,21.788
1400,210.473,0.483,21.818
1434,210.666,0.48,21.925
1467,210.946,0.504,22.122
1500,211.109,0.526,22.168
1533,211.234,0.533,22.189
1567,211.523,0.587,22.393
1600,211.686,0.631,22.511
1633,211.898,0.671,22.635
1667,212.161,0.727,22.807
1700,212.413,0.783,22.905
1733,212.569,0.771,22.854
1767,212.699,0.767,22.798
1800,212.799,0.743,22.716
1833,213.124,0.776,22.905
1867,213.199,0.783,22.877
1900,213.237,0.764,22.819
1933,213.292,0.748,22.786
1967,213.287,0.724,22.723
2000,213.195,0.709,22.618
2033,212.799,0.696,22.36
2067,212.511,0.699,22.296
2100,212.717,0.752,22.609
2133,212.938,0.812,22.844
2167,213.131,0.849,22.978
2200,213.187,0.852,22.935
2233,213.398,0.901,23.049
2267,213.555,0.936,23.11
2300,213.705,0.949,23.165
2333,213.967,1.02,23.352
2367,213.884,1.033,23.206
2400,213.722,1.024,23.032
2433,213.618,1.041,22.994
2467,213.284,1.007,22.728
2500,213.242,1.019,22.762
2533,213.373,1.08,22.953
2567,213.287,1.08,22.877
2600,213.219,1.065,22.814
2633,213.155,1.062,22.739
2667,213.35,1.102,22.913
2700,213.433,1.099,22.897
2733,213.448,1.09,22.802
2767,213.182,1.041,22.489
2800,212.635,0.978,22.051
2833,212.052,0.91,21.648
2867,211.99,0.912,21.729
2900,211.647,0.86,21.491
2933,211.575,0.822,21.46
2967,211.622,0.813,21.503
3000,211.601,0.81,21.5
3033,211.56,0.778,21.415
3067,211.797,0.795,21.565
3100,211.743,0.775,21.459
3133,211.729,0.754,21.401
3167,211.676,0.726,21.305
3200,211.861,0.749,21.448
3233,211.968,0.735,21.468
3267,211.782,0.67,21.205
3300,211.927,0.681,21.327
3333,212.009,0.699,21.408
3367,212.037,0.717,21.438
3400,212.159,0.764,21.567
3433,212.347,0.835,21.778
3467,212.473,0.906,21.871
3500,212.406,0.917,21.76
3533,212.223,0.897,21.583
3567,212.011,0.885,21.425
3600,211.502,0.856,21.113
3633,211.168,0.855,21.041
3667,211.022,0.855,21.083
3700,210.885,0.816,21.045
3733,210.75,0.774,20.93
3767,210.682,0.742,20.876
3800,210.581,0.711,20.8
3833,210.546,0.691,20.807
3867,210.511,0.67,20.773
3900,210.407,0.664,20.719
3933,210.336,0.659,20.697
3967,210.311,0.649,20.701
4000,210.322,0.637,20.703
4033,210.241,0.609,20.609
4066,210.331,0.614,20.674
4100,210.52,0.645,20.868
4133,210.807,0.743,21.203
4166,210.733,0.774,21.165
4200,210.6,0.77,21.041
4233,210.534,0.767,20.969
4266,210.453,0.737,20.836
4300,210.479,0.718,20.778
4333,210.482,0.675,20.706
4366,210.533,0.644,20.696
4400,210.691,0.637,20.769
4433,210.475,0.613,20.595
4466,210.099,0.607,20.411
4500,209.875,0.597,20.391
4533,209.809,0.602,20.477
4566,209.849,0.618,20.588
4600,209.682,0.625,20.466
4633,209.584,0.639,20.441
4666,209.752,0.713,20.716
4700,209.786,0.8,20.849
4733,209.701,0.848,20.865
4766,209.605,0.865,20.799
4800,209.59,0.858,20.708
4833,209.556,0.764,20.334
4866,209.79,0.665,20.047
4900,210.375,0.704,20.366
4933,211.034,0.871,21.19
4966,211.086,1.016,21.565
5000,211.092,1.127,21.758
5033,211.278,1.213,21.937
5066,211.612,1.291,22.071
5100,212.051,1.362,22.211
5133,212.305,1.384,22.166
5166,212.232,1.312,21.846
5200,211.978,1.189,21.446
5233,211.691,1.129,21.169
5266,211.144,1.047,20.713
5300,211.092,1.018,20.716
5333,211.377,1.069,21.016
5366,211.642,1.135,21.343
5400,211.471,1.086,21.3
5433,211.483,1.095,21.415
5466,211.541,1.081,21.484
5500,211.82,1.129,21.695
5533,211.984,1.15,21.764
5566,212.108,1.203,21.882
5600,212.317,1.326,22.158
5633,212.517,1.483,22.442
5666,212.715,1.66,22.689
5700,212.943,1.837,22.951
5733,213.016,1.944,23.024
5766,213.055,2.043,23.088
5800,212.882,2.03,22.921
5833,212.889,2.064,22.963
5866,212.912,2.119,23.023
5900,213.005,2.187,23.135
5933,212.999,2.2,23.123
5966,212.826,2.111,22.913
6000,212.605,1.969,22.646
6033,212.262,1.79,22.271
6066,211.998,1.661,22.024
6100,211.696,1.62,21.841
6133,211.689,1.682,22.023
6166,211.683,1.758,22.158
6200,211.566,1.74,22.096
6233,211.247,1.638,21.757
6266,211.221,1.622,21.699
6300,211.58,1.767,22.071
6333,211.76,1.869,22.237
6366,211.837,1.923,22.315
6400,212.027,2.023,22.524
6433,212.076,2.061,22.555
6466,212.112,2.073,22.57
6500,212.177,2.07,22.634
6533,212.288,2.103,22.725
6566,212.376,2.111,22.764
6599,212.315,2.045,22.623
6633,212.099,1.901,22.349
6666,211.86,1.778,22.084
6699,211.639,1.651,21.828
6733,211.616,1.578,21.755
6766,211.879,1.63,21.994
6799,211.915,1.652,22.048
6833,212.082,1.738,22.311
6866,211.905,1.765,22.285
6899,211.452,1.688,21.932
6933,211.045,1.624,21.65
6966,210.351,1.505,21.124
6999,209.742,1.419,20.733
7033,209.463,1.345,20.484
7066,209.76,1.309,20.501
7099,210.005,1.305,20.513
7133,210.116,1.337,20.623
7166,210.315,1.484,21.122
7199,209.93,1.49,21.128
7233,209.445,1.383,20.857
7266,209.598,1.372,21.004
7299,209.727,1.408,21.029
7333,209.822,1.43,21.03
7366,209.852,1.459,21.07
7399,209.718,1.467,21.029
7433,209.717,1.492,21.138
7466,209.692,1.504,21.15
7499,209.629,1.478,21.09
7533,209.78,1.501,21.196
7566,210.014,1.548,21.29
7599,210.118,1.562,21.278
7633,210.259,1.59,21.331
7666,210.329,1.553,21.237
7699,210.514,1.56,21.216
7733,210.7,1.658,21.439
7766,210.463,1.674,21.424
7799,209.847,1.523,21.007
7833,209.5,1.43,20.786
7866,209.78,1.468,21.064
7899,210.534,1.66,21.647
7933,211.197,1.84,22.025
7966,211.468,1.875,22.05
7999,211.223,1.787,21.713
8033,210.825,1.627,21.3
8066,210.834,1.571,21.272
8099,210.949,1.585,21.353
8133,210.942,1.6,21.33
8166,211.03,1.659,21.444
8199,211.071,1.674,21.547
8233,211.404,1.797,21.933
8266,211.429,1.839,22.01
8299,211.49,1.853,22.053
8333,211.389,1.809,21.885
8366,211.246,1.717,21.71
8399,211.059,1.605,21.535
8433,210.811,1.456,21.268
8466,210.72,1.369,21.159
8499,210.764,1.331,21.172
8533,210.874,1.318,21.263
8566,211.411,1.43,21.754
8599,211.643,1.51,21.912
8633,211.239,1.407,21.454
8666,209.68,0.976,20.006
8699,209.199,0.741,19.722
8733,209.257,0.645,19.88
8766,210.015,0.659,20.526
8799,210.789,0.75,21.052
8833,211.359,0.836,21.303
8866,211.866,0.915,21.525
8899,212.687,1.132,22.063
8933,212.793,1.18,21.966
8966,213.118,1.34,22.145
8999,213.297,1.436,22.236
9033,214.747,2.124,23.549
9066,214.675,2.141,23.309
9099,214.883,2.181,23.323
9132,214.899,2.119,23.122
9166,214.972,2.046,22.99
9199,215.241,2.051,23.056
9232,215.764,2.167,23.383
9266,216.235,2.344,23.681
9299,216.503,2.469,23.802
9332,216.594,2.534,23.806
9366,216.804,2.637,23.962
9399,217.029,2.726,24.097
9432,217.152,2.78,24.141
9466,216.894,2.652,23.846
9499,216.039,2.255,23.04
9532,215.138,1.952,22.345
9566,214.606,1.836,22.158
9599,214.502,1.846,22.38
9632,214.582,1.904,22.647
9666,214.511,1.911,22.688
9699,214.33,1.837,22.561
9732,214.134,1.759,22.405
9766,214.155,1.734,22.444
9799,214.225,1.735,22.468
9832,214.049,1.679,22.256
9866,213.955,1.638,22.161
9899,213.892,1.602,22.129
9932,214.178,1.686,22.425
9966,214.439,1.777,22.651
9999,214.515,1.813,22.671
10032,214.668,1.857,22.757
10066,214.972,1.96,22.968
10099,215.118,2.026,23.004
10132,215.161,2.035,22.969
10166,214.996,1.954,22.742
10199,215.185,2.004,22.904
10232,215.252,2.013,22.925
10266,215.252,1.97,22.868
10299,215.093,1.863,22.645
10332,215.034,1.819,22.559
10366,214.595,1.717,22.237
10399,213.966,1.628,21.871
10432,213.778,1.635,21.955
10466,213.752,1.67,22.115
10499,213.852,1.716,22.288
10532,213.973,1.771,22.415
10566,214.017,1.81,22.457
10599,214.083,1.84,22.497
10632,214.09,1.852,22.477
10666,214.014,1.828,22.393
10699,213.957,1.796,22.304
10732,214.041,1.803,22.339
10766,214.02,1.782,22.284
10799,213.871,1.666,22.087
10832,213.644,1.508,21.811
10866,213.491,1.35,21.62
10899,213.625,1.289,21.702
10932,213.87,1.268,21.848
10966,214.107,1.283,21.973
10999,214.334,1.338,22.121
11032,214.534,1.39,22.231
11066,214.746,1.441,22.375
11099,214.838,1.488,22.409
11132,214.837,1.497,22.369
11166,214.804,1.474,22.301
11199,214.701,1.431,22.175
11232,214.483,1.377,21.991
11266,214.064,1.35,21.705
11299,213.821,1.39,21.718
11332,213.689,1.416,21.783
11366,213.632,1.398,21.804
11399,213.623,1.364,21.781
11432,213.87,1.436,22.011
11466,213.934,1.469,22.039
11499,214.006,1.484,22.072
11532,213.997,1.492,22.018
11566,213.971,1.475,21.984
11599,213.925,1.476,21.972
11632,213.805,1.422,21.84
11666,213.82,1.379,21.81
11699,214.126,1.453,22.085
11732,214.337,1.527,22.239
11765,214.39,1.526,22.236
11799,214.398,1.511,22.178
11832,214.413,1.492,22.136
11865,214.387,1.481,22.103
11899,214.286,1.439,22.038
11932,214.079,1.357,21.819
11965,214.163,1.325,21.835
11999,214.213,1.283,21.788
12032,214.331,1.281,21.858
12065,214.316,1.258,21.835
12099,214.196,1.245,21.747
12132,213.884,1.224,21.545
12165,213.453,1.221,21.341
12199,213.149,1.219,21.295
12232,213.116,1.237,21.427
12265,213.157,1.254,21.53
12299,213.095,1.25,21.517
12332,213.093,1.242,21.549
12365,213.294,1.299,21.722
12399,213.366,1.348,21.784
12432,213.343,1.375,21.777
12465,213.328,1.39,21.768
12499,213.452,1.443,21.923
12532,213.582,1.5,22.068
12565,213.611,1.526,22.045
12599,213.708,1.563,22.123
12632,213.995,1.697,22.405
12665,214.114,1.804,22.526
12699,214.169,1.877,22.598
12732,214.532,2.066,22.961
12765,215.332,2.518,23.7
12799,215.183,2.433,23.372
12832,215.909,1.78,23.159
12865,220.677,1.628,24.551
12899,224.124,1.566,25.443
12932,225.206,1.515,25.848
12965,226.081,1.54,26.292
12999,227.218,1.721,27.029
13032,228.522,1.783,27.626
13065,230.485,2.33,28.805
13099,231.631,2.999,29.773
13132,232.109,3.578,30.471
13165,232.546,4.203,31.014
13199,232.982,4.91,31.625
13232,233.283,5.47,32.073
13265,233.537,5.926,32.4
13299,234.034,6.626,33.003
13332,235.001,7.937,34.205
13365,235.539,8.616,34.682
13399,236.019,9.36,35.238
13432,236.563,10.179,35.847
13465,236.79,10.466,35.945
13499,237.063,10.844,36.165
13532,238.13,12.793,37.805
13565,238.214,12.823,37.532
13599,238.392,13.164,37.667
13632,238.293,13.089,37.398
13665,238.05,13.018,37.134
13699,238.069,13.468,37.488
13732,238.34,14.207,38.116
13765,238.478,14.609,38.387
13799,238.679,15.164,38.81
13832,238.794,15.467,38.96
13865,238.998,16.101,39.412
13899,239.292,16.871,39.943
13932,239.406,17.262,40.07
13965,239.509,17.62,40.253
13999,239.435,17.438,40.007
14032,239.346,17.221,39.836
14065,239.373,17.196,39.849
14099,239.393,17.183,39.878
14132,239.414,17.122,39.888
14165,239.553,17.401,40.18
14199,239.651,17.537,40.281
14232,239.66,17.481,40.207
14265,239.71,17.445,40.192
14298,239.695,17.301,40.045
14332,239.496,16.903,39.627
14365,239.236,16.537,39.291
14398,239.075,16.284,39.104
14432,238.863,15.916,38.85
14465,238.859,15.904,38.984
14498,238.805,15.79,38.974
14532,238.768,15.659,38.914
14565,238.609,15.249,38.627
14598,238.58,15.032,38.581
14632,238.706,15.152,38.794
14665,238.828,15.325,38.95
14698,238.972,15.529,39.101
14732,239.043,15.521,39.082
14765,239.05,15.337,38.932
14798,239.036,15.111,38.783
14832,239.054,14.991,38.741
14865,239.112,14.963,38.764
14898,239.108,14.776,38.63
14932,239.274,15.18,39.015
14965,239.295,15.118,38.891
14998,238.978,14.435,38.226
15032,238.506,13.641,37.534
15065,238.201,13.305,37.31
15098,238.107,13.239,37.359
15132,238.164,13.426,37.622
15165,238.155,13.408,37.603
15198,238.139,13.382,37.579
15232,238.105,13.325,37.531
15265,238.009,13.139,37.331
15298,237.878,12.874,37.12
15332,237.885,12.81,37.148
15365,237.949,12.833,37.25
15398,238.023,12.88,37.329
15432,238.076,12.88,37.342
15465,238.089,12.813,37.3
15498,238.163,12.909,37.395
15532,238.203,12.982,37.45
15565,238.256,13.006,37.48
15598,238.294,12.996,37.463
15632,238.173,12.687,37.19
15665,238.062,12.486,37.034
15698,237.931,12.331,36.887
15732,237.716,12.081,36.662
15765,237.554,11.866,36.518
15798,237.65,11.967,36.751
15832,237.728,11.982,36.894
15865,237.708,11.83,36.885
15898,237.82,11.982,37.167
15932,237.997,12.299,37.527
15965,238.307,12.944,38.115
15998,238.54,13.458,38.494
16032,238.587,13.69,38.549
16065,238.638,13.854,38.598
16098,238.663,13.883,38.577
16132,238.639,13.786,38.487
16165,238.615,13.645,38.368
16198,238.616,13.561,38.323
16232,238.637,13.598,38.397
16265,238.642,13.521,38.369
16298,238.601,13.4,38.259
16332,238.525,13.191,38.104
16365,238.406,12.928,37.876
16398,238.104,12.494,37.432
16432,237.823,12.218,37.172
16465,237.679,12.153,37.168
16498,237.584,12.039,37.116
16532,237.569,12.011,37.145
16565,237.614,12.117,37.304
16598,237.661,12.158,37.36
16632,237.624,12.068,37.281
16665,237.597,12.023,37.248
16698,237.587,12.031,37.238
16732,237.678,12.246,37.425
16765,237.803,12.496,37.628
16798,237.828,12.512,37.602
16831,237.816,12.475,37.536
16865,237.85,12.497,37.544
16898,237.874,12.493,37.511
16931,237.861,12.421,37.406
16965,237.857,12.387,37.358
16998,237.852,12.31,37.267
17031,237.876,12.275,37.223
17065,237.76,12.063,36.982
17098,237.497,11.725,36.603
17131,237.081,11.285,36.121
17165,236.9,11.228,36.077
17198,236.878,11.262,36.152
17231,236.87,11.261,36.163
17265,236.903,11.263,36.203
17298,236.862,11.125,36.116
17331,236.771,10.956,35.974
17365,236.774,10.982,36.001
17398,236.708,10.89,35.895
17431,236.656,10.841,35.859
17465,236.76,11.05,36.097
17498,236.916,11.311,36.349
17531,237.006,11.435,36.444
17565,237.054,11.507,36.487
17598,237.047,11.485,36.434
17631,236.992,11.369,36.306
17665,236.86,11.141,36.077
17698,236.706,10.923,35.883
17731,236.632,10.87,35.871
17765,236.51,10.777,35.775
17798,236.42,10.731,35.73
17831,236.245,10.548,35.519
17865,235.914,10.235,35.15
17898,235.743,10.132,35.042
17931,235.884,10.35,35.323
17965,235.957,10.458,35.436
17998,235.865,10.407,35.365
18031,235.816,10.4,35.364
18065,235.892,10.599,35.556
18098,235.866,10.612,35.526
18131,235.738,10.507,35.369
18165,235.539,10.29,35.096
18198,235.45,10.193,35.002
18231,235.489,10.168,35.02
18265,235.783,10.4,35.332
18298,236.014,10.491,35.466
18331,236.07,10.454,35.399
18365,235.949,10.37,35.262
18398,236.012,10.593,35.498
18431,236.028,10.61,35.529
18465,235.987,10.494,35.457
18498,236.081,10.46,35.505
18531,236.318,10.636,35.749
18565,236.445,10.642,35.79
18598,236.575,10.741,35.896
18631,236.423,10.521,35.596
18665,236.012,10.178,35.157
18698,235.936,10.35,35.292
18731,235.944,10.517,35.417
18765,235.947,10.595,35.473
18798,235.972,10.589,35.482
18831,236.055,10.664,35.582
18865,236.21,10.831,35.758
18898,236.305,10.841,35.754
18931,236.247,10.714,35.585
18965,236.215,10.689,35.543
18998,236.09,10.555,35.375
19031,235.981,10.42,35.236
19065,235.917,10.382,35.199
19098,235.973,10.534,35.338
19131,236.067,10.758,35.548
19165,236.147,10.95,35.704
19198,236.145,10.977,35.67
19231,236.123,10.959,35.614
19265,236.25,11.058,35.698
19298,236.277,10.982,35.62
19331,236.215,10.819,35.455
19364,236.195,10.753,35.43
19398,236.295,10.775,35.54
19431,236.395,10.736,35.599
19464,236.455,10.692,35.591
19498,236.293,10.396,35.271
19531,236.07,10.229,35.072
19564,235.873,10.127,34.959
19598,235.857,10.229,35.095
19631,235.954,10.47,35.366
19664,236.075,10.647,35.512
19698,236.161,10.773,35.594
19731,236.152,10.704,35.478
19764,236.201,10.727,35.467
19798,236.363,10.986,35.708
19831,236.377,10.952,35.644
19864,236.412,11.007,35.691
19898,236.574,11.228,35.905
19931,236.695,11.377,36.045
19964,236.744,11.386,36.048
19998,236.728,11.328,35.948
20031,236.729,11.344,35.959
20064,236.713,11.384,35.969
20098,236.685,11.434,35.983
20131,236.568,11.363,35.86
20164,236.468,11.33,35.787
20198,236.544,11.417,35.867
20231,236.597,11.438,35.909
20264,236.847,11.684,36.2
20298,236.93,11.599,36.154
20331,236.913,11.441,36.013
20364,236.874,11.343,35.911
20398,236.503,10.958,35.436
20431,236.067,10.626,35.052
20464,235.946,10.657,35.156
20498,236.012,10.809,35.396
20531,235.968,10.787,35.408
20564,235.909,10.748,35.352
20598,235.951,10.815,35.433
20631,236.156,10.982,35.596
20664,236.139,10.833,35.421
20698,236.149,10.787,35.377
20731,236.202,10.781,35.442
20764,236.314,10.797,35.57
20798,236.6,11.025,35.898
20831,236.75,11.009,35.951
20864,236.872,11.019,35.984
20898,236.961,11.074,36.027
20931,236.888,10.935,35.851
20964,236.884,10.899,35.805
20998,236.878,10.894,35.8
21031,236.944,10.994,35.886
21064,237.119,11.284,36.158
21098,237.238,11.462,36.301
21131,237.225,11.399,36.192
21164,237.208,11.259,36.052
21198,237.182,11.168,36.001
21231,237.15,11.078,35.954
21264,237.007,10.928,35.775
21298,236.737,10.694,35.466
21331,236.561,10.666,35.404
21364,236.486,10.656,35.419
21398,236.509,10.71,35.522
21431,236.545,10.756,35.605
21464,236.438,10.542,35.389
21498,236.373,10.325,35.22
21531,236.287,10.108,35.051
21564,236.312,10.069,35.075
21598,236.306,9.975,35.025
21631,236.367,10.049,35.137
21664,236.413,10.094,35.168
21698,236.435,10.073,35.174
21731,236.559,10.175,35.317
21764,236.666,10.284,35.441
21798,236.749,10.369,35.517
21831,236.851,10.492,35.6
21864,236.927,10.592,35.653
21898,237.018,10.716,35.737
21931,236.994,10.628,35.629
21964,236.955,10.506,35.511
21997,236.914,10.433,35.459
22031,236.928,10.39,35.464
22064,236.933,10.344,35.461
22097,237.047,10.458,35.609
22131,237.148,10.511,35.684
22164,237.024,10.292,35.448
22197,236.781,10.071,35.149
22231,236.598,10.015,35.02
22264,236.569,10.095,35.106
22297,236.605,10.112,35.162
22331,236.663,10.132,35.229
22364,236.625,10.012,35.131
22397,236.579,9.819,34.976
22431,236.429,9.508,34.727
22464,236.371,9.395,34.705
22497,236.446,9.507,34.867
22531,236.633,9.707,35.14
22564,236.759,9.757,35.233
22597,236.928,9.896,35.425
22631,237.12,10.117,35.687
22664,237.315,10.329,35.939
22697,237.415,10.416,36.063
22731,237.402,10.312,35.967
22764,237.423,10.359,36.01
22797,237.528,10.553,36.191
22831,237.671,10.816,36.433
22864,237.68,10.766,36.324
22897,237.663,10.681,36.222
22931,237.606,10.47,36.061
22964,237.6,10.321,35.965
22997,237.447,9.977,35.678
23031,237.201,9.643,35.323
23064,236.887,9.389,35.009
23097,236.805,9.46,35.088
23131,236.85,9.592,35.261
23164,237.025,9.817,35.56
23197,237.179,9.967,35.736
23231,237.277,10.081,35.858
23264,237.387,10.278,36.034
23297,237.465,10.37,36.089
23331,237.456,10.438,36.098
23364,237.436,10.45,36.055
23397,237.362,10.332,35.892
23431,237.44,10.458,36.028
23464,237.497,10.535,36.099
23497,237.598,10.682,36.236
23531,237.68,10.798,36.325
23564,237.762,10.859,36.362
23597,237.851,10.901,36.387
23631,237.899,10.957,36.428
23664,237.92,11.041,36.451
23697,237.965,11.164,36.519
23731,238.033,11.323,36.619
23764,238.215,11.618,36.884
23797,238.35,11.765,36.964
23831,238.295,11.568,36.734
23864,238.062,11.234,36.334
23897,237.654,10.807,35.801
23931,237.378,10.685,35.626
23964,237.187,10.553,35.53
23997,237.152,10.504,35.571
24031,237.17,10.506,35.638
24064,237.096,10.37,35.522
24097,237.061,10.324,35.489
24131,237.091,10.342,35.56
24164,237.036,10.265,35.493
24197,237.005,10.229,35.468
24231,237.054,10.27,35.544
24264,237.093,10.259,35.559
24297,237.135,10.254,35.574
24331,237.157,10.253,35.607
24364,237.214,10.303,35.676
24397,237.292,10.339,35.726
24431,237.299,10.296,35.683
24464,237.272,10.206,35.603
24497,237.273,10.189,35.58
24531,237.242,10.085,35.486
24564,237.188,9.929,35.347
24597,237.123,9.79,35.243
24630,237.128,9.735,35.227
24664,237.103,9.626,35.139
24697,237.08,9.543,35.094
24730,236.806,9.185,34.666
24764,236.421,8.915,34.316
24797,236.174,8.86,34.227
24830,236.058,8.869,34.259
24864,236.015,8.819,34.28
24897,235.918,8.633,34.163
24930,235.826,8.475,34.072
24964,235.883,8.543,34.206
24997,236.0,8.655,34.377
25030,236.12,8.715,34.47
25064,236.351,8.941,34.702
25097,236.548,9.046,34.816
25130,236.752,9.138,34.92
25164,236.974,9.248,35.034
25197,237.113,9.232,35.028
25230,237.264,9.259,35.111
25264,237.377,9.254,35.11
25297,237.448,9.206,35.085
25330,237.418,9.046,34.961
25364,237.517,9.082,35.027
25397,237.563,9.12,35.07
25430,237.631,9.173,35.13
25464,237.701,9.215,35.169
25497,237.808,9.289,35.271
25530,237.937,9.374,35.382
25564,238.073,9.504,35.53
25597,238.193,9.602,35.613
25630,238.172,9.614,35.575
25664,237.97,9.447,35.251
25697,237.72,9.328,35.014
25730,237.677,9.427,35.089
25764,237.676,9.476,35.128
25797,237.69,9.524,35.148
25830,237.739,9.617,35.222
25864,237.771,9.614,35.212
25897,237.847,9.69,35.31
25930,237.896,9.711,35.313
25964,237.851,9.614,35.204
25997,237.838,9.571,35.155
26030,237.853,9.598,35.196
26064,237.901,9.588,35.201
26097,237.922,9.57,35.189
26130,237.99,9.573,35.233
26164,238.044,9.557,35.248
26197,238.129,9.591,35.305
26230,238.211,9.681,35.399
26264,238.28,9.747,35.466
26297,238.33,9.801,35.495
26330,238.422,9.905,35.602
26364,238.502,9.945,35.681
26397,238.528,9.906,35.66
26430,238.596,9.951,35.726
26464,238.695,10.018,35.809
26497,238.626,9.882,35.633
26530,238.369,9.6,35.246
26564,238.165,9.513,35.091
26597,238.105,9.564,35.115
26630,238.137,9.638,35.191
26664,238.178,9.666,35.249
26697,238.233,9.708,35.324
26730,238.312,9.761,35.416
26764,238.359,9.744,35.424
26797,238.36,9.687,35.392
26830,238.347,9.641,35.343
26864,238.36,9.681,35.367
26897,238.448,9.827,35.509
26930,238.556,10.008,35.679
26964,238.608,10.06,35.703
26997,238.688,10.133,35.79
27030,238.763,10.22,35.871
27063,238.815,10.328,35.973
27097,238.881,10.389,36.011
27130,238.938,10.475,36.082
27163,239.015,10.617,36.191
27197,239.047,10.611,36.155
27230,239.063,10.576,36.1
27263,239.086,10.557,36.112
27297,239.153,10.612,36.187
27330,239.216,10.68,36.263
27363,239.213,10.642,36.206
27397,238.933,10.266,35.736
27430,238.546,9.899,35.264
27463,238.334,9.876,35.203
27497,238.355,10.113,35.446
27530,238.425,10.326,35.66
27563,238.386,10.332,35.643
27597,238.242,10.171,35.43
27630,238.17,10.118,35.371
27663,238.214,10.152,35.414
27697,238.295,10.291,35.572
27730,238.26,10.292,35.519
27763,238.239,10.375,35.542
27797,238.248,10.508,35.648
27830,238.303,10.59,35.731
27863,238.386,10.631,35.783
27897,238.365,10.501,35.632
27930,238.376,10.494,35.65
27963,238.407,10.531,35.741
27997,238.6,10.79,36.04
28030,238.744,10.952,36.177
28063,238.741,10.938,36.105
28097,238.734,10.995,36.128
28130,238.772,11.162,36.249
28163,238.869,11.354,36.409
28197,238.961,11.495,36.502
28230,238.97,11.42,36.38
28263,239.033,11.453,36.409
28297,239.0,11.45,36.338
28330,238.768,11.293,36.03
28363,238.581,11.296,35.909
28397,238.592,11.532,36.101
28430,238.487,11.461,36.005
28463,238.379,11.28,35.849
28497,238.283,11.212,35.789
28530,238.272,11.265,35.872
28563,238.345,11.366,35.992
28597,238.314,11.219,35.86
28630,238.135,10.813,35.492
28663,237.892,10.381,35.096
28697,237.758,10.153,34.964
28730,237.749,10.105,35.032
28763,237.786,10.091,35.134
28797,237.859,10.085,35.221
28830,237.967,10.087,35.318
28863,237.985,10.037,35.32
28897,238.03,10.039,35.371
28930,238.082,10.134,35.474
28963,238.184,10.322,35.666
28997,238.155,10.354,35.65
29030,238.156,10.38,35.648
29063,238.214,10.573,35.829
29097,238.277,10.705,35.938
29130,238.329,10.741,35.939
29163,238.407,10.821,35.985
29197,238.371,10.776,35.867
29230,238.126,10.474,35.42
29263,237.786,10.217,35.026
29297,237.534,10.104,34.837
29330,237.508,10.226,34.991
29363,237.523,10.258,35.068
29397,237.373,10.018,34.834
29430,237.114,9.665,34.474
29463,237.044,9.55,34.449
29497,237.144,9.72,34.686
29530,237.347,10.047,35.036
29563,237.609,10.432,35.436
29596,237.84,10.773,35.726
29630,237.912,10.905,35.754
29663,237.873,10.818,35.584
29696,237.774,10.654,35.385
29730,237.8,10.658,35.371
29763,237.857,10.733,35.445
29796,237.843,10.701,35.386
29830,237.867,10.624,35.321
29863,237.983,10.67,35.433
29896,238.01,10.659,35.435
29930,237.972,10.587,35.381
29963,237.897,10.417,35.276
29996,237.864,10.199,35.153
30030,237.917,10.165,35.218
30063,238.069,10.322,35.442
30096,238.02,10.245,35.32
30130,237.773,10.023,34.994
30163,237.653,10.004,34.926
30196,237.614,10.038,34.96
30230,237.632,10.066,35.032
30263,237.588,10.002,34.958
30296,237.655,10.11,35.067
30330,237.754,10.194,35.152
30363,237.802,10.165,35.105
30396,237.743,10.057,34.995
30430,237.71,10.033,34.959
30463,237.743,10.146,35.071
30496,237.703,10.132,35.052
30530,237.711,10.177,35.059
30563,237.717,10.172,35.044
30596,237.748,10.207,35.076
30630,237.791,10.275,35.124
30663,237.905,10.519,35.357
30696,238.14,10.919,35.75
30730,238.236,10.998,35.807
30763,238.294,11.022,35.807
30796,238.279,10.887,35.683
30830,238.203,10.691,35.497
30863,238.188,10.65,35.465
30896,238.172,10.673,35.505
30930,238.319,10.972,35.837
30963,238.275,11.016,35.808
30996,237.992,10.866,35.495
31030,237.649,10.695,35.152
31063,237.513,10.711,35.123
31096,237.553,10.771,35.213
31130,237.611,10.829,35.275
31163,237.579,10.76,35.196
31196,237.508,10.64,35.097
31230,237.44,10.542,35.024
31263,237.457,10.472,35.024
31296,237.489,10.476,35.061
31330,237.475,10.366,35.001
31363,237.439,10.276,34.946
31396,237.404,10.185,34.894
31430,237.318,9.999,34.728
31463,237.333,9.982,34.755
31496,237.345,9.957,34.752
31530,237.453,10.068,34.892
31563,237.546,10.118,34.961
31596,237.631,10.141,35.02
31630,237.66,10.046,34.966
31663,237.615,9.833,34.796
31696,237.725,9.921,34.939
31730,237.845,10.057,35.096
31763,237.993,10.288,35.336
31796,238.176,10.504,35.532
31830,238.316,10.658,35.681
31863,238.366,10.684,35.682
31896,238.332,10.597,35.557
31930,238.003,10.227,35.077
31963,237.644,9.944,34.721
31996,237.465,9.89,34.672
32030,237.281,9.672,34.526
32063,237.157,9.458,34.402
32096,237.101,9.36,34.384
32129,237.084,9.354,34.424
32163,237.172,9.504,34.622
32196,237.3,9.689,34.849
32230,237.506,10.046,35.193
32263,237.67,10.356,35.413
32296,237.91,10.816,35.783
32329,238.123,11.181,36.031
32363,238.234,11.273,36.031
32396,238.283,11.342,36.023
32429,238.367,11.47,36.086
32463,238.381,11.428,35.989
32496,238.376,11.366,35.949
32529,238.364,11.26,35.856
32563,238.397,11.237,35.843
32596,238.474,11.288,35.9
32629,238.529,11.283,35.906
32663,238.6,11.322,35.967
32696,238.701,11.336,36.019
32729,238.702,11.198,35.886
32763,238.612,10.934,35.641
32796,238.3,10.459,35.158
32829,237.983,10.171,34.811
32863,237.84,10.176,34.822
32896,237.775,10.169,34.844
32929,237.689,10.093,34.795
32963,237.621,9.976,34.723
32996,237.478,9.736,34.492
33029,237.478,9.719,34.537
33063,237.617,9.935,34.811
33096,237.697,10.03,34.882
33129,237.73,10.103,34.927
33163,237.731,10.079,34.873
33196,237.856,10.185,34.993
33229,238.016,10.352,35.158
33263,238.175,10.473,35.282
33296,238.259,10.459,35.251
33329,238.255,10.357,35.147
33363,238.302,10.356,35.175
33396,238.328,10.296,35.146
33429,238.298,10.127,35.017
33463,238.28,10.048,34.963
33496,238.347,10.088,35.081
33529,238.426,10.117,35.134
33563,238.415,10.042,35.085
33596,238.338,9.918,34.998
33629,238.223,9.779,34.868
33663,238.116,9.695,34.788
33696,237.856,9.451,34.472
33729,237.571,9.352,34.292
33763,237.457,9.457,34.362
33796,237.457,9.645,34.565
33829,237.552,9.833,34.764
33863,237.627,9.945,34.821
33896,237.552,9.801,34.656
33929,237.465,9.705,34.567
33963,237.399,9.635,34.496
33996,237.38,9.622,34.506
34029,237.534,9.872,34.795
34063,237.756,10.228,35.144
34096,237.938,10.43,35.344
34129,237.96,10.366,35.27
34163,237.833,10.036,34.934
34196,237.661,9.64,34.582
34229,237.569,9.445,34.482
34263,237.707,9.575,34.709
34296,237.929,9.864,35.057
34329,238.167,10.172,35.338
34363,238.299,10.383,35.478
34396,238.421,10.589,35.628
34429,238.616,10.944,35.925
34463,238.737,11.193,36.043
34496,238.812,11.296,36.069
34529,238.799,11.219,35.964
34563,238.73,11.028,35.798
34596,238.433,10.551,35.281
34629,237.996,10.04,34.721
34663,237.66,9.824,34.515
34696,237.525,9.776,34.538
34729,237.528,9.8,34.665
34762,237.559,9.817,34.771
34796,237.618,9.83,34.833
34829,237.687,9.857,34.897
34862,237.696,9.825,34.871
34896,237.689,9.788,34.828
34929,237.653,9.785,34.823
34962,237.686,9.855,34.901
34996,237.769,10.01,35.056
35029,237.88,10.16,35.185
35061,237.91,10.129,35.116
35096,237.925,10.058,35.028
35129,238.039,10.173,35.119
35162,238.125,10.274,35.25
35196,238.083,10.184,35.148
35229,237.945,10.033,34.987
35262,238.049,10.18,35.191
35296,238.234,10.467,35.496
35329,238.409,10.668,35.669
35362,238.515,10.756,35.745
35396,238.58,10.849,35.809
35429,238.589,10.785,35.735
35462,238.503,10.632,35.55
35496,238.269,10.335,35.154
35529,237.86,9.926,34.629
35561,237.689,9.925,34.587
35596,237.716,10.058,34.78
35629,237.776,10.148,34.944
35662,237.86,10.237,35.062
35696,238.037,10.435,35.279
35729,238.111,10.463,35.314
35762,238.106,10.38,35.232
35796,238.16,10.396,35.278
35829,238.258,10.567,35.455
35862,238.351,10.75,35.616
35896,238.551,11.137,35.974
35929,238.553,11.176,35.943
35962,238.385,10.883,35.609
35996,238.257,10.772,35.489
36029,238.314,10.888,35.61
36061,238.354,10.916,35.663
36096,238.415,11.078,35.796
36129,238.453,11.257,35.924
36162,238.578,11.467,36.114
36196,238.71,11.577,36.203
36229,238.68,11.361,35.978
36262,238.491,10.974,35.6
36296,238.448,10.892,35.607
36329,238.457,10.846,35.62
36362,238.316,10.654,35.386
36396,238.009,10.352,34.951
36429,237.668,10.103,34.633
36462,237.533,10.145,34.709
36496,237.495,10.3,34.906
36529,237.627,10.625,35.245
36561,237.782,10.774,35.378
36596,237.819,10.709,35.271
36629,237.679,10.451,34.966
36662,237.666,10.54,35.065
36696,237.701,10.646,35.162
36729,237.809,10.862,35.331
36762,238.029,11.027,35.487
36796,237.863,10.536,35.004
36829,237.713,10.239,34.759
36862,237.788,10.336,34.955
36896,237.826,10.289,34.968
36929,237.865,10.245,34.985
36962,237.834,10.111,34.894
36996,237.895,10.139,34.986
37029,237.915,10.075,34.951
37061,237.922,9.976,34.867
37096,237.801,9.71,34.619
37129,237.772,9.654,34.597
37162,237.853,9.706,34.704
37196,238.019,9.899,34.963
37229,238.063,9.908,34.958
37262,237.82,9.691,34.63
37295,237.561,9.675,34.47
37329,237.369,9.673,34.403
37362,237.294,9.656,34.407
37395,237.315,9.709,34.51
37429,237.33,9.722,34.545
37462,237.327,9.668,34.506
37495,237.408,9.76,34.628
37529,237.455,9.831,34.708
37561,237.459,9.855,34.691
37595,237.531,10.002,34.835
37629,237.656,10.227,35.072
37662,237.778,10.419,35.248
37695,237.799,10.389,35.186
37729,237.826,10.375,35.144
37762,237.836,10.376,35.148
37795,237.886,10.421,35.199
37829,237.899,10.474,35.253
37862,237.987,10.575,35.353
37895,238.111,10.687,35.466
37929,238.208,10.751,35.536
37962,238.322,10.802,35.593
37995,238.537,11.056,35.872
38029,238.84,11.418,36.208
38061,239.034,11.622,36.348
38095,239.091,11.65,36.305
38129,238.91,11.361,35.934
38162,238.478,10.946,35.34
38195,238.131,10.839,35.12
38229,237.995,10.953,35.221
38262,238.079,11.284,35.603
38295,238.205,11.58,35.905
38329,238.291,11.835,36.103
38362,238.356,12.024,36.215
38395,238.384,12.025,36.177
38429,238.302,11.831,35.938
38462,238.316,11.859,35.934
38495,238.344,11.909,36.001
38529,238.397,11.982,36.113
38561,238.542,12.15,36.298
38595,238.609,12.112,36.227
38629,238.617,11.965,36.075
38662,238.625,11.864,36.035
38695,238.6,11.654,35.916
38729,238.625,11.558,35.89
38762,238.626,11.425,35.859
38795,238.702,11.469,35.974
38829,238.735,11.454,35.984
38862,238.87,11.657,36.177
38895,239.028,11.937,36.403
38929,239.044,11.901,36.316
38962,238.893,11.701,36.037
38995,238.645,11.519,35.737
39029,238.452,11.589,35.689
39061,238.431,11.849,35.899
39095,238.525,12.096,36.133
39129,238.537,12.129,36.14
39162,238.548,12.107,36.099
39195,238.533,12.055,36.044
39229,238.563,12.067,36.065
39262,238.612,12.113,36.131
39295,238.553,12.009,36.027
39329,238.51,11.876,35.917
39362,238.462,11.699,35.815
39395,238.434,11.496,35.701
39429,238.344,11.234,35.536
39462,238.234,10.946,35.347
39495,238.13,10.678,35.18
39529,238.095,10.532,35.155
39561,238.147,10.492,35.219
39595,238.18,10.421,35.228
39629,238.136,10.252,35.139
39662,238.154,10.237,35.197
39695,238.203,10.31,35.338
39729,238.324,10.462,35.548
39762,238.443,10.631,35.741
39795,238.513,10.709,35.816
39828,238.315,10.385,35.416
39862,237.99,10.115,35.051
39895,237.65,9.944,34.779
39928,237.445,9.941,34.748
39962,237.406,9.972,34.82
39995,237.475,10.058,34.984
40027,237.436,9.939,34.894
40061,237.387,9.872,34.843
40095,237.477,9.99,35.024
40128,237.466,9.924,34.967
40162,237.498,9.945,35.022
40195,237.541,9.974,35.05
40228,237.538,9.958,35.007
40262,237.619,10.074,35.152
40295,237.732,10.204,35.321
40328,237.787,10.205,35.305
40362,237.849,10.228,35.344
40395,237.901,10.22,35.35
40428,237.961,10.26,35.399
40462,238.059,10.352,35.476
40495,238.16,10.475,35.615
40527,238.334,10.718,35.853
40561,238.498,10.968,36.071
40595,238.701,11.324,36.359
40628,238.856,11.584,36.51
40662,238.906,11.599,36.429
40695,238.877,11.494,36.287
40728,238.773,11.25,36.037
40762,238.385,10.663,35.382
40795,237.903,10.169,34.81
40828,237.575,9.918,34.566
40862,237.348,9.67,34.441
40895,237.166,9.386,34.297
40928,237.028,9.154,34.196
40962,236.944,8.994,34.17
40995,236.867,8.862,34.145
41027,236.935,8.938,34.285
41061,237.142,9.252,34.658
41095,237.304,9.411,34.822
41128,237.402,9.493,34.898
41162,237.475,9.542,34.953
41195,237.685,9.817,35.256
41228,237.789,9.898,35.303
41262,237.648,9.547,34.936
41295,237.381,8.987,34.431
41328,237.415,8.995,34.571
41362,237.499,9.069,34.687
41395,237.395,8.946,34.57
41428,237.384,8.929,34.589
41462,237.489,9.077,34.777
41495,237.675,9.279,35.051
41527,237.723,9.237,35.049
41561,237.625,9.018,34.848
41595,237.361,8.675,34.465
41628,236.879,8.292,33.998
41662,236.63,8.336,33.994
41695,236.615,8.612,34.239
41728,236.651,8.746,34.39
41762,236.704,8.778,34.448
41795,236.757,8.783,34.503
41828,236.778,8.698,34.461
41862,236.708,8.478,34.275
41895,236.726,8.435,34.275
41928,236.885,8.616,34.493
41962,237.022,8.744,34.608
41995,237.092,8.794,34.646
42027,237.214,8.872,34.737
42061,237.318,8.911,34.802
42095,237.435,9.06,34.954
42128,237.507,9.09,34.971
42162,237.508,9.037,34.908
42195,237.531,9.059,34.941
42228,237.539,9.052,34.923
42262,237.604,9.162,35.017
42295,237.733,9.354,35.215
42328,237.853,9.477,35.328
42361,238.004,9.667,35.496
42395,238.015,9.606,35.383
42428,237.699,9.195,34.829
42461,237.205,8.768,34.27
42495,236.874,8.655,34.118
42527,236.793,8.709,34.227
42561,236.834,8.794,34.38
42595,236.833,8.723,34.373
42628,236.713,8.509,34.19
42661,236.656,8.383,34.135
42695,236.757,8.505,34.319
42728,236.952,8.806,34.597
42761,237.096,9.094,34.836
42795,237.303,9.42,35.129
42828,237.476,9.658,35.304
42861,237.678,9.951,35.54
42895,237.791,10.099,35.616
42928,237.868,10.139,35.634
42961,237.916,10.181,35.651
42995,237.891,10.083,35.5
43027,237.894,10.059,35.477
43061,237.89,10.049,35.45
43095,237.893,10.061,35.46
43128,237.925,10.041,35.463
43161,237.985,10.041,35.481
43195,238.01,9.978,35.413
43228,237.86,9.699,35.131
43261,237.481,9.214,34.554
43295,236.992,8.834,34.072
43328,236.609,8.6,33.819
43361,236.45,8.54,33.793
43395,236.398,8.494,33.843
43428,236.354,8.404,33.835
43461,236.349,8.404,33.884
43495,236.452,8.557,34.085
43527,236.777,9.025,34.591
43561,236.897,9.215,34.716
43595,237.011,9.408,34.842
43628,237.161,9.644,35.022
43661,237.328,9.921,35.248
43695,237.424,10.058,35.315
43728,237.492,10.106,35.313
43761,237.419,9.965,35.133
43795,237.469,10.025,35.194
43828,237.526,10.085,35.261
43861,237.514,9.974,35.139
43895,237.433,9.839,34.983
43928,237.359,9.748,34.92
43961,237.265,9.588,34.793
43995,237.105,9.372,34.582
44027,236.954,9.132,34.363
44061,236.825,8.946,34.254
44095,236.673,8.763,34.104
44128,236.404,8.555,33.827
44161,236.275,8.665,33.832
44195,236.29,8.956,34.085
44228,236.365,9.204,34.31
44261,236.425,9.299,34.403
44295,236.463,9.312,34.428
44328,236.538,9.335,34.49
44361,236.53,9.252,34.424
44395,236.446,9.098,34.283
44428,236.344,8.933,34.121
44461,236.373,8.991,34.208
44495,236.4,9.02,34.236
44527,236.408,9.009,34.243
44561,236.452,9.042,34.298
44595,236.597,9.212,34.492
44628,236.752,9.427,34.691
44661,236.918,9.61,34.861
44695,237.004,9.648,34.883
44728,237.033,9.611,34.838
44761,237.054,9.599,34.804
44795,237.082,9.565,34.771
44828,237.093,9.566,34.78
44861,237.073,9.508,34.743
44894,236.956,9.291,34.53
44928,236.871,9.186,34.417
44961,236.801,9.119,34.365
44993,236.451,8.807,33.947
45027,236.076,8.625,33.638
45061,235.926,8.715,33.707
45094,235.896,8.834,33.842
45128,235.986,8.978,34.025
45161,236.082,9.068,34.149
45194,236.114,9.086,34.164
45228,236.111,8.996,34.07
45261,236.062,8.886,33.958
45294,235.959,8.75,33.816
45328,235.998,8.854,33.953
45361,236.037,8.901,34.009
45394,236.112,8.974,34.097
45428,236.24,9.13,34.278
45461,236.348,9.209,34.349
45493,236.431,9.248,34.371
45527,236.528,9.322,34.427
45561,236.625,9.425,34.52
45594,236.69,9.47,34.563
45628,236.772,9.588,34.682
45661,236.821,9.653,34.736
45694,236.901,9.787,34.833
45728,236.946,9.818,34.819
45761,236.944,9.799,34.796
45794,236.966,9.828,34.83
45828,236.903,9.709,34.69
45861,236.604,9.46,34.318
45894,236.287,9.289,34.036
45928,235.995,9.189,33.86
45961,235.93,9.267,33.973
45993,235.964,9.31,34.066
46027,235.946,9.203,34.016
46061,235.966,9.211,34.077
46094,235.915,9.112,33.982
46128,235.961,9.166,34.057
46161,235.945,9.18,34.073
46194,235.926,9.19,34.068
46228,235.896,9.182,34.037
46261,235.898,9.17,34.029
46294,235.91,9.197,34.062
46328,235.927,9.191,34.059
46361,235.962,9.225,34.112
46394,236.137,9.493,34.394
46428,236.223,9.595,34.481
46461,236.385,9.857,34.703
46493,236.643,10.223,35.026
46527,236.904,10.573,35.289
46561,237.044,10.723,35.341
46594,237.074,10.721,35.294
46628,237.088,10.692,35.201
46661,237.071,10.653,35.112
46694,237.0,10.583,35.012
46728,236.6,10.12,34.444
46761,236.087,9.716,33.923
46794,235.808,9.609,33.812
46828,235.862,9.781,34.075
46861,235.87,9.748,34.098
46894,235.73,9.449,33.841
46928,235.561,9.101,33.564
46961,235.422,8.819,33.387
46993,235.33,8.711,33.364
47027,235.369,8.725,33.46
47061,235.289,8.615,33.381
47094,235.274,8.592,33.395
47128,235.209,8.488,33.32
47161,235.345,8.698,33.58
47194,235.429,8.829,33.698
47228,235.534,9.021,33.882
47261,235.555,9.1,33.9
47294,235.734,9.366,34.154
47328,235.859,9.566,34.311
47361,235.927,9.639,34.329
47394,235.965,9.634,34.302
47427,235.933,9.496,34.146
47461,235.762,9.159,33.817
47493,235.719,9.107,33.81
47527,235.707,9.048,33.791
47561,235.585,8.96,33.661
47594,235.401,8.958,33.568
47627,235.325,9.107,33.643
47661,235.32,9.269,33.787
47694,235.301,9.252,33.781
47727,235.4,9.368,33.909
47761,235.473,9.354,33.929
47794,235.513,9.308,33.908
47827,235.392,9.031,33.646
47861,235.214,8.802,33.416
47894,235.045,8.599,33.221
47927,234.999,8.595,33.263
47961,234.977,8.584,33.278
47993,234.741,8.253,32.963
48027,234.643,8.117,32.891
48061,234.917,8.384,33.26
48094,235.056,8.479,33.394
48127,235.068,8.453,33.38
48161,235.059,8.424,33.357
48194,235.129,8.55,33.492
48227,235.204,8.688,33.612
48261,235.312,8.846,33.757
48294,235.315,8.85,33.714
48327,235.25,8.772,33.599
48361,235.06,8.581,33.362
48394,234.712,8.327,33.014
48427,234.473,8.331,32.938
48461,234.35,8.391,32.957
48493,234.408,8.479,33.09
48527,234.52,8.567,33.23
48561,234.745,8.747,33.466
48594,234.813,8.752,33.457
48627,234.775,8.655,33.355
48661,234.606,8.436,33.117
48694,234.523,8.366,33.05
48727,234.577,8.459,33.156
48761,234.681,8.588,33.282
48794,234.798,8.713,33.425
48827,234.961,8.87,33.586
48861,235.113,8.982,33.712
48894,235.156,8.929,33.648
48927,235.159,8.845,33.562
48961,235.145,8.805,33.526
48993,235.187,8.833,33.591
49027,235.169,8.744,33.516
49061,235.087,8.622,33.404
49094,235.059,8.551,33.355
49127,235.034,8.484,33.323
49161,235.082,8.52,33.406
49194,234.894,8.363,33.161
49227,234.563,8.193,32.843
49261,234.349,8.145,32.732
49294,234.313,8.178,32.802
49327,234.372,8.228,32.931
49361,234.445,8.243,33.021
49394,234.465,8.226,33.019
49427,234.456,8.178,32.999
49461,234.5,8.209,33.045
49493,234.485,8.194,33.03
49527,234.499,8.255,33.079
49561,234.601,8.403,33.23
49594,234.754,8.615,33.432
49627,234.951,8.819,33.612
49661,235.063,8.875,33.641
49694,235.106,8.846,33.606
49727,235.063,8.68,33.462
49761,235.079,8.606,33.418
49794,235.103,8.581,33.405
49827,235.111,8.55,33.396
49861,235.17,8.551,33.437
49894,235.151,8.466,33.385
49927,235.114,8.371,33.313
49961,234.856,8.074,32.976
49993,234.448,7.756,32.575
50027,234.219,7.677,32.479
50060,234.217,7.785,32.625
50094,234.376,7.936,32.855
50127,234.503,7.967,32.939
50160,234.606,7.967,32.975
50194,234.778,8.058,33.129
50227,234.797,7.996,33.051
50260,234.67,7.789,32.835
50294,234.553,7.648,32.701
50327,234.475,7.609,32.676
50360,234.552,7.725,32.829
50394,234.67,7.834,32.96
50427,234.739,7.83,32.965
50459,234.818,7.819,32.977
50493,234.927,7.865,33.048
50527,235.045,7.939,33.128
50560,235.118,8.021,33.205
50594,235.194,8.136,33.304
50627,235.291,8.276,33.402
50660,235.338,8.336,33.409
50694,235.001,7.988,32.946
50727,234.602,7.727,32.568
50760,234.45,7.841,32.621
50794,234.49,7.987,32.781
50827,234.564,7.998,32.863
50860,234.68,8.029,32.969
50894,234.736,8.011,32.963
50927,234.78,7.994,32.972
50959,234.717,7.854,32.829
50993,234.647,7.771,32.74
51027,234.67,7.849,32.82
51060,234.758,8.06,33.002
51094,234.838,8.186,33.116
51127,234.879,8.213,33.13
51160,234.924,8.211,33.131
51194,234.975,8.205,33.154
51227,234.993,8.194,33.119
51260,235.022,8.211,33.13
51294,235.06,8.238,33.185
51327,235.159,8.332,33.285
51360,235.222,8.367,33.318
51394,235.076,8.208,33.107
51427,234.627,7.834,32.582
51459,234.252,7.674,32.311
51493,234.112,7.712,32.346
51527,234.138,7.803,32.505
51560,234.197,7.834,32.606
51594,234.236,7.841,32.638
51627,234.23,7.784,32.617
51660,234.258,7.762,32.639
51694,234.317,7.803,32.712
51727,234.353,7.812,32.69
51760,234.373,7.82,32.68
51794,234.325,7.726,32.57
51827,234.322,7.693,32.559
51860,234.368,7.72,32.624
51894,234.462,7.772,32.723
51927,234.558,7.827,32.784
51959,234.669,7.889,32.853
51993,234.706,7.866,32.825
52027,234.699,7.824,32.796
52060,234.683,7.802,32.756
52094,234.58,7.631,32.577
52127,234.205,7.281,32.11
52160,233.743,7.0,31.711
52194,233.56,7.06,31.775
52227,233.768,7.354,32.159
52260,233.885,7.551,32.375
52294,234.002,7.748,32.525
52327,234.157,7.964,32.716
52360,234.33,8.228,32.921
52394,234.519,8.488,33.123
52427,234.49,8.456,32.981
52459,234.279,8.152,32.617
52493,234.053,7.861,32.342
52527,234.083,7.814,32.386
52560,234.158,7.78,32.443
52593,234.34,7.875,32.615
52627,234.55,7.975,32.761
52660,234.621,7.867,32.704
52693,234.705,7.813,32.731
52727,234.823,7.85,32.824
52760,234.831,7.781,32.79
52793,234.774,7.661,32.717
52827,234.519,7.404,32.404
52860,233.999,7.053,31.899
52893,233.657,6.976,31.759
52927,233.611,7.052,31.899
52959,233.626,7.097,32.007
52993,233.726,7.149,32.145
53027,233.813,7.113,32.181
53060,233.961,7.175,32.285
53093,234.063,7.174,32.354
53127,234.038,7.035,32.22
53160,234.099,7.065,32.288
53193,234.127,7.063,32.296
53227,234.229,7.113,32.369
53260,234.335,7.189,32.468
53293,234.502,7.293,32.606
53327,234.619,7.34,32.665
53360,234.688,7.357,32.667
53393,234.763,7.378,32.714
53427,234.84,7.389,32.74
53459,234.915,7.37,32.737
53493,235.016,7.397,32.797
53527,235.042,7.422,32.785
53560,234.74,7.21,32.403
53593,234.577,7.246,32.331
53627,234.48,7.301,32.352
53660,234.593,7.466,32.566
53693,234.652,7.5,32.624
53727,234.728,7.5,32.68
53760,234.814,7.476,32.694
53793,234.888,7.426,32.707
53827,234.913,7.358,32.654
53860,234.949,7.31,32.652
53893,235.014,7.315,32.682
53927,235.037,7.268,32.667
53959,235.08,7.217,32.679
53993,235.254,7.386,32.929
54027,235.577,7.702,33.301
54060,235.894,7.953,33.57
54093,236.066,8.009,33.622
54127,236.134,7.956,33.553
54160,236.191,7.873,33.52
54193,236.22,7.752,33.439
54227,236.141,7.582,33.247
54260,235.687,7.084,32.595
54293,235.229,6.763,32.181
54327,235.08,6.776,32.216
54360,235.163,6.926,32.478
54393,235.326,7.071,32.699
54427,235.5,7.187,32.868
54459,235.576,7.163,32.856
54493,235.596,7.081,32.782
54527,235.682,7.124,32.86
54560,235.751,7.208,32.94
54593,235.805,7.242,32.96
54627,235.825,7.27,32.963
54660,235.848,7.328,33.013
54693,235.916,7.402,33.092
54727,236.007,7.521,33.204
54760,236.07,7.6,33.286
54793,236.164,7.748,33.413
54827,236.253,7.812,33.452
54860,236.294,7.84,33.472
54893,236.314,7.845,33.457
54927,236.044,7.58,33.074
54959,235.551,7.224,32.556
54993,235.168,7.053,32.314
55027,235.058,7.107,32.402
55060,235.033,7.149,32.502
55093,235.098,7.217,32.653
55126,235.12,7.202,32.692
55160,235.194,7.221,32.754
55193,235.248,7.214,32.776
55226,235.262,7.204,32.764
55260,235.29,7.243,32.802
55293,235.312,7.26,32.813
55326,235.338,7.284,32.844
55360,235.396,7.296,32.862
55393,235.407,7.246,32.825
55426,235.423,7.205,32.796
55459,235.48,7.231,32.851
55493,235.585,7.309,32.958
55526,235.709,7.413,33.067
55560,235.81,7.518,33.15
55593,235.789,7.511,33.078
55626,235.416,7.232,32.596
55660,235.084,7.125,32.348
55693,234.996,7.203,32.408
55726,235.144,7.41,32.708
55760,235.294,7.537,32.883
55793,235.43,7.594,32.985
55826,235.541,7.668,33.058
55860,235.626,7.696,33.062
55893,235.686,7.69,33.056
55926,235.709,7.691,33.039
55959,235.741,7.695,33.054
55993,235.803,7.708,33.106
56026,235.874,7.72,33.155
56060,235.966,7.76,33.213
56093,236.05,7.761,33.253
56126,236.116,7.795,33.285
56160,236.229,7.858,33.398
56193,236.363,7.953,33.501
56226,236.446,7.976,33.531
56260,236.511,7.989,33.542
56293,236.32,7.762,33.222
56326,235.911,7.456,32.743
56360,235.677,7.434,32.648
56393,235.673,7.57,32.824
56426,235.747,7.683,32.985
56459,235.847,7.763,33.098
56493,235.979,7.88,33.25
56526,236.144,8.025,33.438
56560,236.306,8.136,33.54
56593,236.422,8.22,33.606
56626,236.496,8.244,33.65
56660,236.584,8.294,33.689
56693,236.613,8.304,33.651
56726,236.676,8.282,33.651
56760,236.785,8.362,33.777
56793,236.888,8.357,33.817
56826,236.989,8.411,33.917
56860,237.059,8.415,33.923
56893,237.143,8.442,33.975
56926,237.255,8.541,34.086
56959,237.493,8.827,34.396
56993,237.741,9.082,34.652
57026,237.842,9.156,34.678
57060,237.752,8.992,34.409
57093,237.362,8.614,33.852
57126,237.004,8.4,33.532
57160,236.915,8.448,33.63
57193,236.923,8.492,33.732
57226,236.943,8.476,33.766
57260,236.972,8.454,33.783
57293,237.018,8.445,33.809
57326,237.103,8.487,33.88
57360,237.232,8.553,34.019
57393,237.316,8.566,34.054
57426,237.439,8.664,34.164
57459,237.541,8.75,34.248
57493,237.687,8.904,34.407
57526,237.825,8.975,34.497
57560,237.906,9.003,34.531
57593,238.02,9.079,34.611
57626,238.08,9.105,34.642
57659,238.168,9.158,34.703
57693,238.262,9.217,34.779
57726,238.316,9.2,34.776
57759,238.43,9.334,34.931
57793,238.541,9.45,35.026
57826,238.659,9.553,35.12
57859,238.686,9.485,35.038
57893,238.422,9.089,34.544
57926,238.027,8.741,34.072
57959,237.883,8.822,34.136
57993,237.863,8.948,34.279
58026,237.917,9.063,34.436
58059,237.968,9.145,34.538
58093,238.057,9.226,34.631
58126,238.149,9.353,34.773
58159,238.234,9.39,34.84
58193,238.271,9.341,34.801
58226,238.312,9.354,34.799
58259,238.386,9.495,34.931
58293,238.506,9.681,35.125
58326,238.609,9.813,35.242
58359,238.67,9.817,35.236
58393,238.747,9.858,35.273
58426,238.804,9.867,35.303
58459,238.896,9.972,35.432
58493,238.991,10.064,35.513
58526,239.079,10.176,35.597
58559,239.168,10.254,35.664
58593,239.19,10.203,35.596
58626,239.231,10.223,35.637
58659,239.363,10.405,35.841
58693,239.451,10.523,35.929
58726,239.485,10.481,35.866
58759,239.442,10.348,35.735
58793,239.206,10.008,35.325
58826,238.859,9.7,34.929
58859,238.696,9.731,34.928
58893,238.636,9.773,34.994
58926,238.657,9.847,35.103
58959,238.715,9.962,35.252
58993,238.811,10.084,35.371
59026,238.911,10.228,35.499
59059,239.004,10.328,35.601
59093,239.085,10.427,35.703
59126,239.11,10.448,35.724
59159,239.129,10.506,35.732
59193,239.142,10.573,35.764
59226,239.22,10.737,35.919
59259,239.297,10.86,36.015
59293,239.41,11.053,36.171
59326,239.511,11.194,36.29
59359,239.61,11.328,36.406
59393,239.711,11.459,36.498
59426,239.78,11.561,36.561
59493,239.991,11.907,36.816
59526,240.071,12.013,36.869
59559,240.158,12.159,36.99
59593,240.246,12.254,37.081
59626,240.336,12.379,37.192
59659,240.406,12.485,37.267
59693,240.474,12.595,37.349
59726,240.513,12.66,37.349
59759,240.387,12.484,37.094
59793,240.111,12.288,36.765
59826,240.02,12.468,36.838
59859,240.086,12.732,37.065
59893,240.17,12.917,37.243
59926,240.24,13.048,37.343
59959,240.262,13.069,37.325
59993,240.331,13.174,37.421
60026,240.373,13.222,37.459
60059,240.406,13.24,37.468
60093,240.411,13.241,37.474
60126,240.396,13.194,37.419
60159,240.318,13.078,37.315
60193,240.278,13.041,37.28
60226,240.229,12.929,37.198
60259,240.208,12.86,37.151
60292,240.179,12.827,37.171
60326,240.175,12.788,37.163
60359,240.154,12.746,37.129
60392,240.218,12.889,37.281
60426,240.294,13.047,37.434
60459,240.378,13.169,37.568
60492,240.474,13.336,37.715
60526,240.512,13.404,37.735
60559,240.58,13.554,37.839
60592,240.635,13.646,37.902
60626,240.686,13.72,37.954
60659,240.731,13.777,38.01
60692,240.734,13.735,37.949
60726,240.634,13.533,37.716
60759,240.356,13.21,37.321
60792,240.235,13.306,37.352
60826,240.167,13.418,37.437
60859,240.183,13.522,37.537
60892,240.191,13.525,37.579
60926,240.14,13.401,37.473
60959,240.138,13.388,37.47
60992,240.117,13.32,37.441
61026,240.087,13.245,37.4
61059,240.083,13.207,37.378
61092,240.099,13.25,37.434
61126,240.107,13.297,37.498
61159,240.166,13.391,37.591
61192,240.236,13.506,37.682
61226,240.354,13.671,37.844
61259,240.412,13.709,37.868
61292,240.477,13.786,37.936
61326,240.504,13.803,37.933
61359,240.561,13.85,37.98
61392,240.572,13.834,37.962
61426,240.711,14.093,38.232
61459,240.856,14.364,38.458
61492,240.942,14.412,38.468
61526,240.95,14.289,38.348
61559,240.903,14.095,38.173
61592,240.876,13.964,38.093
61626,240.902,13.936,38.119
61659,240.891,13.875,38.098
61692,240.703,13.59,37.765
61726,240.424,13.427,37.536
61759,240.321,13.639,37.688
61792,240.283,13.831,37.849
61826,240.289,13.954,37.973
61859,240.344,14.067,38.073
61892,240.333,14.016,37.992
61926,240.342,14.014,38.018
61959,240.348,14.001,38.008
61992,240.359,13.994,38.016
62026,240.342,13.958,37.99
62059,240.275,13.766,37.806
62092,240.222,13.572,37.648
62126,240.197,13.363,37.521
62159,240.188,13.259,37.499
62192,240.23,13.27,37.591
62226,240.263,13.235,37.588
62259,240.267,13.205,37.545
62292,240.287,13.211,37.581
62326,240.305,13.221,37.629
62359,240.338,13.306,37.705
62392,240.37,13.328,37.698
62426,240.4,13.376,37.728
62459,240.448,13.453,37.826
62492,240.46,13.414,37.791
62526,240.476,13.384,37.779
62559,240.521,13.45,37.852
62592,240.549,13.451,37.842
62626,240.468,13.257,37.638
62659,240.188,12.873,37.209
62692,239.99,12.767,37.058
62726,239.974,13.027,37.279
62759,240.056,13.269,37.532
62792,240.042,13.238,37.506
62825,240.023,13.122,37.402
62859,239.97,12.95,37.252
62892,239.942,12.738,37.098
62925,239.896,12.511,36.966
62959,239.84,12.347,36.86
62992,239.785,12.164,36.717
63025,239.761,12.059,36.677
63059,239.741,11.925,36.611
63092,239.786,11.889,36.667
63125,239.763,11.681,36.517
63159,239.738,11.538,36.465
63192,239.75,11.482,36.454
63225,239.736,11.367,36.384
63259,239.762,11.318,36.384
63292,239.803,11.326,36.433
63325,239.818,11.355,36.47
63359,239.892,11.461,36.589
63392,239.918,11.527,36.643
63425,240.03,11.75,36.832
63459,240.155,12.017,37.052
63492,240.206,12.096,37.077
63525,240.156,11.921,36.847
63559,239.908,11.54,36.43
63592,239.627,11.293,36.131
63625,239.481,11.231,36.081
63659,239.444,11.231,36.126
63692,239.454,11.203,36.167
63725,239.434,11.09,36.106
63759,239.461,11.074,36.122
63792,239.45,11.031,36.107
63825,239.461,11.035,36.11
63859,239.49,11.08,36.184
63892,239.486,11.088,36.168
63925,239.511,11.116,36.191
63959,239.523,11.158,36.228
63992,239.558,11.191,36.266
64025,239.595,11.19,36.265
64059,239.595,11.163,36.224
64092,239.626,11.199,36.287
64125,239.642,11.199,36.273
64159,239.674,11.247,36.329
64192,239.681,11.242,36.311
64225,239.735,11.315,36.373
64259,239.728,11.312,36.375
64292,239.738,11.322,36.39
64325,239.758,11.339,36.392
64359,239.786,11.358,36.405
64392,239.76,11.259,36.318
64425,239.565,10.919,35.964
64459,239.324,10.661,35.67
64492,239.101,10.521,35.476
64525,239.033,10.59,35.572
64559,239.054,10.675,35.7
64592,239.101,10.716,35.763
64625,239.156,10.736,35.813
64659,239.156,10.694,35.775
64692,239.164,10.689,35.786
64725,239.152,10.673,35.781
64759,239.17,10.707,35.793
64792,239.121,10.681,35.728
64825,239.113,10.677,35.739
64859,239.104,10.666,35.728
64892,239.158,10.784,35.828
64925,239.178,10.793,35.816
64959,239.195,10.832,35.846
64992,239.241,10.9,35.915
65025,239.257,10.903,35.917
65059,239.24,10.873,35.889
65092,239.282,10.922,35.939
65125,239.287,10.937,35.937
65159,239.295,10.963,35.957
65192,239.34,11.013,36.008
65225,239.35,11.043,36.023
65259,239.343,10.992,35.975
65292,239.203,10.771,35.714
65325,238.955,10.587,35.464
65358,238.784,10.511,35.345
65392,238.76,10.587,35.44
65425,238.81,10.649,35.546
65458,238.874,10.715,35.659
65492,238.918,10.72,35.682
65525,238.897,10.652,35.606
65558,238.94,10.684,35.636
65592,238.91,10.636,35.568
65625,238.896,10.673,35.588
65658,238.869,10.698,35.606
65692,238.879,10.707,35.598
65725,238.884,10.753,35.644
65758,238.935,10.805,35.716
65792,238.939,10.795,35.686
65825,238.968,10.825,35.725
65858,239.001,10.839,35.737
65892,239.027,10.889,35.791
65925,239.04,10.863,35.763
65958,239.029,10.839,35.719
65992,239.02,10.845,35.696
66025,239.046,10.886,35.739
66058,239.042,10.862,35.712
66092,239.031,10.815,35.681
66125,238.917,10.65,35.475
66158,238.689,10.423,35.163
66192,238.469,10.298,35.011
66225,238.401,10.328,35.064
66258,238.416,10.416,35.184
66292,238.479,10.439,35.271
66325,238.537,10.482,35.344
66358,238.569,10.456,35.322
66392,238.552,10.433,35.289
66425,238.513,10.345,35.189
66458,238.489,10.355,35.205
66492,238.474,10.323,35.175
66525,238.446,10.286,35.137
66558,238.369,10.203,35.05
66592,238.435,10.279,35.175
66625,238.447,10.292,35.186
66658,238.492,10.353,35.24
66692,238.498,10.344,35.206
66725,238.486,10.338,35.187
66758,238.539,10.397,35.264
66792,238.556,10.432,35.291
66825,238.565,10.434,35.269
66858,238.596,10.484,35.303
66892,238.672,10.571,35.419
66925,238.687,10.552,35.393
66958,238.603,10.368,35.182
66992,238.299,10.029,34.741
67025,238.005,9.845,34.468
67058,237.934,9.922,34.565
67092,237.952,9.997,34.703
67125,238.015,10.028,34.811
67158,238.122,10.108,34.939
67192,238.167,10.141,34.971
67225,238.163,10.096,34.922
67258,238.178,10.064,34.908
67292,238.164,10.056,34.87
67325,238.125,10.03,34.82
67358,238.121,10.049,34.841
67392,238.149,10.053,34.875
67425,238.162,10.045,34.869
67458,238.205,10.089,34.924
67492,238.247,10.098,34.949
67525,238.253,10.099,34.937
67558,238.294,10.142,34.985
67592,238.309,10.116,34.952
67625,238.348,10.154,34.999
67658,238.403,10.203,35.084
67692,238.408,10.193,35.074
67725,238.47,10.256,35.141
67758,238.505,10.27,35.152
67792,238.487,10.236,35.097
67825,238.285,9.99,34.762
67858,237.945,9.742,34.372
67891,237.801,9.739,34.333
67925,237.809,9.826,34.478
67958,237.855,9.879,34.593
67991,237.876,9.874,34.61
68025,237.926,9.909,34.655
68058,237.99,9.955,34.731
68091,237.982,9.876,34.647
68125,237.986,9.891,34.664
68158,237.951,9.878,34.619
68191,237.929,9.895,34.601
68225,237.948,9.941,34.663
68258,238.027,10.008,34.777
68291,238.08,10.107,34.853
68325,238.151,10.179,34.916
68358,238.204,10.194,34.936
68391,238.222,10.186,34.934
68425,238.25,10.193,34.944
68458,238.29,10.212,34.948
68491,238.3,10.254,34.983
68525,238.365,10.371,35.09
68558,238.416,10.437,35.138
68591,238.433,10.452,35.133
68625,238.367,10.253,34.926
68658,238.209,9.994,34.652
68691,237.964,9.759,34.335
68725,237.768,9.668,34.206
68758,237.737,9.754,34.316
68791,237.758,9.789,34.407
68825,237.798,9.782,34.463
68858,237.798,9.695,34.404
68891,237.844,9.709,34.456
68925,237.863,9.683,34.455
68958,237.836,9.613,34.385
68991,237.838,9.588,34.375
69025,237.848,9.6,34.383
69058,237.764,9.493,34.284
69091,237.765,9.474,34.3
69125,237.8,9.483,34.33
69158,237.821,9.494,34.355
69191,237.82,9.462,34.343
69225,237.835,9.44,34.325
69258,237.817,9.387,34.282
69291,237.8,9.339,34.248
69325,237.81,9.339,34.251
69358,237.83,9.339,34.274
69391,237.832,9.334,34.289
69425,237.849,9.331,34.279
69458,237.894,9.364,34.324
69491,237.922,9.351,34.338
69525,237.917,9.285,34.251
69558,237.616,8.949,33.791
69591,237.241,8.68,33.404
69625,237.035,8.621,33.359
69658,237.065,8.706,33.538
69691,237.102,8.747,33.634
69725,237.189,8.798,33.73
69758,237.209,8.785,33.741
69791,237.227,8.749,33.734
69825,237.268,8.786,33.777
69858,237.267,8.769,33.747
69891,237.253,8.756,33.723
69925,237.241,8.736,33.7
69958,237.25,8.729,33.708
69991,237.301,8.778,33.799
70025,237.318,8.758,33.801
70058,237.353,8.724,33.795
70091,237.382,8.727,33.821
70125,237.438,8.767,33.881
70158,237.489,8.793,33.917
70191,237.54,8.83,33.962
70225,237.586,8.817,33.97
70258,237.63,8.829,34.003
70291,237.641,8.806,33.972
70325,237.674,8.813,34.008
70358,237.744,8.85,34.064
70391,237.676,8.743,33.892
70424,237.403,8.492,33.509
70458,237.104,8.335,33.274
70491,237.046,8.44,33.387
70524,237.148,8.633,33.645
70558,237.264,8.775,33.826
70591,237.388,8.862,33.951
70624,237.484,8.927,34.024
70658,237.54,8.923,34.016
70724,237.546,8.838,33.911
70758,237.541,8.774,33.847
70791,237.521,8.675,33.773
70824,237.542,8.617,33.776
70858,237.544,8.522,33.713
70924,237.65,8.475,33.773
70958,237.625,8.319,33.633
70991,237.665,8.301,33.674
71024,237.756,8.397,33.795
71058,237.913,8.616,34.03
71091,238.059,8.804,34.196
71124,238.198,8.993,34.351
71158,238.367,9.222,34.565
71191,238.384,9.19,34.477
71224,238.096,8.872,34.0
71258,237.699,8.551,33.538
71291,237.507,8.461,33.437
71324,237.443,8.443,33.466
71358,237.4,8.314,33.441
71391,237.311,8.121,33.33
71424,237.349,8.106,33.418
71458,237.455,8.188,33.57
71491,237.514,8.164,33.585
71524,237.534,8.08,33.531
71558,237.474,7.937,33.378
71591,237.504,7.899,33.39
71624,237.659,8.073,33.622
71658,237.811,8.22,33.828
71691,238.048,8.539,34.148
71724,238.27,8.827,34.395
71758,238.446,9.059,34.585
71791,238.613,9.323,34.786
71824,238.752,9.505,34.897
71858,238.922,9.808,35.156
71891,239.216,10.269,35.58
71924,239.488,10.705,35.935
71958,239.719,11.008,36.151
71991,239.808,11.122,36.169
72024,239.835,11.149,36.098
72058,239.226,10.011,34.753
72091,237.896,8.263,32.92
72124,237.512,8.018,32.809
72158,237.385,8.0,32.922
72191,237.272,7.89,32.906
72224,237.426,8.203,33.343
72258,237.805,8.735,33.876
72291,237.815,8.704,33.822
72324,237.904,8.804,33.876
72358,237.931,8.838,33.861
72391,238.004,8.923,33.927
72424,237.842,8.634,33.58
72458,237.839,8.646,33.634
72491,237.78,8.59,33.584
72524,237.924,8.838,33.878
72558,238.008,8.907,33.938
72591,237.982,8.85,33.87
72624,238.036,8.948,33.994
72658,238.128,9.071,34.128
72691,238.125,9.079,34.099
72724,238.13,9.132,34.127
72758,238.269,9.372,34.385
72791,238.423,9.493,34.509
72824,238.499,9.607,34.616
72858,238.513,9.577,34.528
72891,238.339,9.396,34.211
72924,238.148,9.322,34.066
72957,238.231,9.621,34.37
72991,238.398,9.929,34.717
73024,238.594,10.168,34.967
73057,238.466,9.826,34.568
73091,238.263,9.481,34.221
73124,238.31,9.519,34.339
73157,238.376,9.603,34.468
73191,238.276,9.403,34.263
73224,238.181,9.267,34.128
73291,238.037,8.891,33.871
73324,237.964,8.647,33.717
73357,237.975,8.566,33.802
73391,238.404,9.207,34.6
73424,238.662,9.568,34.971
73457,238.631,9.385,34.717
73491,238.571,9.17,34.514
73524,238.569,8.95,34.362
73557,238.398,8.439,33.902
73591,238.636,8.681,34.364
73624,238.792,8.598,34.384
73657,238.344,7.7,33.444
73691,237.642,6.69,32.427
73724,237.211,6.226,32.109
73757,237.232,6.234,32.396
73791,237.212,6.102,32.439
73824,237.282,6.036,32.524
73857,237.412,6.041,32.659
73891,237.533,6.042,32.765
73924,237.673,6.082,32.89
73957,237.836,6.209,33.052
73991,238.025,6.38,33.231
74024,238.11,6.362,33.207
74057,238.235,6.425,33.269
74091,238.432,6.54,33.443
74124,238.574,6.592,33.526
74157,238.721,6.653,33.592
74191,238.825,6.716,33.656
74224,238.947,6.808,33.752
74257,239.076,6.89,33.843
74291,239.196,6.943,33.885
74324,239.301,7.035,33.97
74357,239.387,7.087,34.013
74391,239.429,7.109,34.049
74424,239.514,7.188,34.123
74491,239.587,7.213,34.086
74524,239.369,6.945,33.691
74557,239.141,6.843,33.475
74591,239.045,6.892,33.501
74624,239.096,7.035,33.716
74657,239.147,7.073,33.781
74691,239.213,7.132,33.85
74724,239.254,7.162,33.89
74757,239.326,7.182,33.945
74791,239.367,7.186,33.965
74824,239.389,7.194,33.948
74857,239.435,7.215,33.967
74924,239.549,7.317,34.107
74957,239.623,7.37,34.189
74991,239.712,7.485,34.299
75024,239.774,7.528,34.326
75057,239.842,7.587,34.386
75091,239.898,7.616,34.415
75124,239.908,7.578,34.369
75157,239.915,7.573,34.347
75191,239.946,7.606,34.379
75224,239.987,7.666,34.47
75257,240.067,7.783,34.561
75291,240.116,7.883,34.634
75324,240.169,7.939,34.688
75357,240.241,8.032,34.756
75391,240.249,8.048,34.753
75424,240.092,7.862,34.458
75457,239.812,7.658,34.128
75491,239.689,7.714,34.142
75524,239.677,7.804,34.265
75557,239.678,7.827,34.305
75590,239.687,7.833,34.344
75624,239.694,7.824,34.358
75657,239.767,7.943,34.502
75690,239.813,7.982,34.561
75724,239.814,7.959,34.517
75757,239.808,7.98,34.502
75790,239.845,8.042,34.572
75824,239.887,8.121,34.639
75857,239.918,8.173,34.695
75890,240.004,8.254,34.792
75924,240.013,8.187,34.708
75957,240.035,8.196,34.724
75990,240.11,8.3,34.849
76024,240.109,8.288,34.829
76057,240.14,8.351,34.856
76090,240.135,8.307,34.816
76157,240.205,8.412,34.927
76190,240.182,8.376,34.871
76224,240.258,8.48,34.97
76257,240.273,8.452,34.96
76290,240.275,8.459,34.947
76324,240.142,8.264,34.683
76357,239.935,8.091,34.427
76390,239.786,8.032,34.33
76424,239.738,8.033,34.377
76457,239.731,8.003,34.414
76490,239.749,8.01,34.463
76524,239.807,8.04,34.546
76557,239.864,8.087,34.608
76590,239.973,8.186,34.71
76624,240.052,8.244,34.767
76657,240.11,8.304,34.822
76690,240.212,8.449,34.969
76724,240.331,8.627,35.142
76790,240.497,8.836,35.317
76824,240.562,8.925,35.37
76857,240.638,9.028,35.456
76890,240.692,9.157,35.541
76924,240.776,9.289,35.632
76957,240.832,9.359,35.689
76990,240.886,9.447,35.764
77024,240.924,9.483,35.78
77057,240.98,9.545,35.825
77090,241.009,9.596,35.849
77124,241.018,9.595,35.808
77157,240.942,9.467,35.641
77190,240.717,9.185,35.272
77224,240.533,9.089,35.126
77257,240.471,9.166,35.227
77290,240.467,9.218,35.294
77324,240.5,9.287,35.383
77357,240.517,9.28,35.367
77390,240.567,9.369,35.505
77424,240.587,9.395,35.523
77457,240.611,9.397,35.521
77490,240.622,9.421,35.534
77524,240.622,9.439,35.528
77557,240.613,9.443,35.512
77590,240.65,9.496,35.554
77624,240.695,9.563,35.638
77657,240.729,9.572,35.656
77690,240.746,9.603,35.68
77724,240.775,9.625,35.699
77757,240.813,9.668,35.744
77790,240.839,9.683,35.77
77824,240.872,9.767,35.838
77857,240.859,9.76,35.806
77890,240.879,9.806,35.822
77924,240.913,9.877,35.876
77957,240.934,9.91,35.889
77990,240.966,9.947,35.931
78024,240.953,9.926,35.893
78057,240.805,9.681,35.586
78090,240.527,9.441,35.259
78123,240.362,9.379,35.173
78157,240.313,9.399,35.244
78190,240.332,9.412,35.288
78223,240.342,9.457,35.352
78257,240.347,9.44,35.359
78290,240.344,9.414,35.349
78323,240.37,9.446,35.405
78357,240.378,9.463,35.413
78390,240.369,9.47,35.411
78423,240.392,9.519,35.466
78457,240.421,9.549,35.486
78490,240.428,9.557,35.48
78523,240.439,9.606,35.534
78557,240.476,9.645,35.561
78590,240.519,9.694,35.6
78623,240.538,9.733,35.639
78657,240.58,9.793,35.695
78690,240.615,9.863,35.752
78723,240.661,9.874,35.776
78757,240.662,9.887,35.778
78790,240.702,9.923,35.796
78823,240.727,9.938,35.795
78857,240.757,9.981,35.845
78890,240.805,10.013,35.884
78923,240.764,9.901,35.758
78957,240.647,9.707,35.536
78990,240.352,9.365,35.114
79023,240.162,9.293,35.011
79057,240.106,9.374,35.095
79090,240.109,9.439,35.181
79123,240.133,9.472,35.259
79157,240.142,9.504,35.275
79190,240.155,9.535,35.322
79223,240.174,9.566,35.364
79257,240.184,9.574,35.35
79290,240.182,9.546,35.325
79323,240.15,9.516,35.291
79357,240.117,9.498,35.285
79390,240.15,9.57,35.354
79423,240.163,9.614,35.415
79457,240.199,9.683,35.457
79490,240.242,9.743,35.516
79523,240.286,9.84,35.576
79557,240.324,9.884,35.603
79590,240.303,9.814,35.525
79623,240.239,9.667,35.369
79657,240.166,9.542,35.286
79690,240.192,9.581,35.341
79723,240.192,9.542,35.332
79757,240.199,9.568,35.37
79790,240.252,9.611,35.434
79823,240.28,9.598,35.44
79857,240.257,9.531,35.358
79890,240.196,9.412,35.209
79923,239.97,9.177,34.907
79957,239.816,9.095,34.818
79990,239.791,9.141,34.901
80023,239.793,9.188,34.971
80057,239.851,9.251,35.063
80090,239.931,9.278,35.121
80123,239.964,9.292,35.163
80157,240.001,9.29,35.165
80190,240.081,9.374,35.27
80223,240.136,9.434,35.322
80257,240.139,9.406,35.285
80290,240.163,9.452,35.3
80323,240.211,9.504,35.363
80357,240.261,9.542,35.4
80390,240.325,9.6,35.433
80423,240.398,9.686,35.533
80457,240.439,9.723,35.582
80490,240.54,9.838,35.68
80523,240.571,9.842,35.672
80557,240.587,9.845,35.676
80590,240.613,9.904,35.698
80623,240.667,9.951,35.745
80656,240.697,9.977,35.753
80690,240.724,10.03,35.793
80723,240.763,10.07,35.831
80756,240.716,9.949,35.711
80790,240.506,9.677,35.349
80823,240.242,9.456,35.052
80856,240.089,9.404,34.991
80890,240.095,9.496,35.126
80923,240.11,9.511,35.207
80956,240.127,9.479,35.206
80990,240.134,9.467,35.219
81023,240.15,9.481,35.234
81056,240.185,9.498,35.285
81090,240.206,9.521,35.314
81123,240.198,9.513,35.282
81156,240.178,9.508,35.249
81190,240.206,9.514,35.286
81223,240.267,9.621,35.404
81256,240.337,9.698,35.473
81290,240.357,9.711,35.481
81323,240.371,9.709,35.444
81356,240.385,9.727,35.459
81390,240.442,9.796,35.531
81423,240.457,9.78,35.523
81456,240.477,9.793,35.532
81490,240.483,9.776,35.517
81523,240.495,9.825,35.566
81556,240.53,9.852,35.594
81590,240.575,9.896,35.639
81623,240.612,9.93,35.654
81656,240.525,9.794,35.472
81690,240.228,9.405,34.979
81723,239.95,9.248,34.753
81756,239.85,9.285,34.809
81790,239.809,9.285,34.867
81823,239.849,9.337,34.963
81856,239.851,9.335,34.984
81890,239.865,9.319,34.982
81923,239.877,9.289,34.973
81956,239.864,9.262,34.945
81990,239.863,9.301,34.983
82023,239.86,9.278,34.933
82056,239.861,9.304,34.949
82090,239.846,9.259,34.938
82123,239.923,9.332,35.032
82156,239.982,9.416,35.137
82190,240.005,9.412,35.125
82223,240.055,9.439,35.154
82256,240.065,9.455,35.177
82290,240.09,9.461,35.154
82323,240.164,9.559,35.266
82356,240.213,9.605,35.283
82390,240.197,9.577,35.243
82423,240.222,9.611,35.274
82456,240.253,9.674,35.339
82490,240.276,9.698,35.362
82523,240.338,9.775,35.426
82556,240.199,9.545,35.114
82590,239.893,9.232,34.683
82623,239.639,9.085,34.474
82656,239.561,9.145,34.552
82690,239.597,9.243,34.745
82723,239.628,9.224,34.782
82756,239.611,9.173,34.762
82790,239.6,9.176,34.769
82823,239.606,9.176,34.756
82856,239.629,9.197,34.776
82890,239.635,9.211,34.801
82923,239.643,9.215,34.801
82956,239.706,9.285,34.896
82990,239.733,9.295,34.904
83023,239.784,9.328,34.937
83056,239.827,9.38,34.979
83090,239.862,9.412,35.017
83123,239.895,9.428,35.033
83156,239.938,9.458,35.053
83189,239.981,9.517,35.122
83223,240.03,9.555,35.163
83256,240.071,9.566,35.156
83289,240.105,9.614,35.209
83323,240.163,9.664,35.256
83356,240.217,9.71,35.301
83389,240.267,9.76,35.364
83423,240.281,9.726,35.301
83456,240.079,9.423,34.907
83489,239.813,9.215,34.628
83523,239.675,9.199,34.6
83556,239.657,9.273,34.693
83589,239.741,9.398,34.895
83623,239.794,9.422,34.963
83656,239.827,9.412,34.961
83689,239.861,9.414,34.967
83723,239.879,9.421,34.987
83756,239.882,9.359,34.93
83789,239.893,9.399,34.968
83823,239.907,9.41,34.977
83856,239.945,9.451,35.011
83889,239.992,9.523,35.082
83923,240.072,9.595,35.191
83956,240.163,9.689,35.29
83989,240.222,9.736,35.319
84023,240.254,9.722,35.281
84056,240.284,9.724,35.284
84089,240.315,9.735,35.302
84123,240.327,9.762,35.325
84156,240.367,9.823,35.381
84189,240.448,9.887,35.443
84223,240.515,9.978,35.536
84256,240.497,9.89,35.422
84289,240.276,9.528,34.961
84323,239.975,9.228,34.59
84356,239.784,9.158,34.535
84389,239.758,9.216,34.648
84423,239.77,9.231,34.728
84456,239.83,9.315,34.872
84489,239.888,9.315,34.911
84523,239.925,9.32,34.924
