time,R,G,B
0,241.579,53.961,22.212
35,241.481,53.909,22.214
78,241.078,51.79,22.066
120,240.858,49.494,22.076
153,240.812,48.376,22.147
183,240.831,48.023,22.167
240,240.819,47.749,22.051
271,240.824,47.74,22.01
299,241.018,48.064,22.103
335,241.014,48.258,22.098
368,240.975,48.388,22.061
408,241.026,48.604,22.034
450,241.056,49.029,22.002
487,241.148,49.627,22.058
517,241.229,50.16,22.042
554,241.376,50.855,22.107
602,241.442,51.496,22.185
632,241.533,52.071,22.201
668,241.595,52.564,22.137
704,241.706,53.128,22.191
740,241.767,53.786,22.146
785,241.85,54.431,22.171
818,241.957,55.084,22.209
856,241.911,55.19,22.167
889,241.599,53.32,22.179
927,241.341,51.108,22.122
967,241.29,49.928,22.14
1001,241.258,49.679,22.041
1034,241.331,49.566,21.996
1194,241.441,49.862,22.01
1198,241.533,50.25,22.185
1238,241.555,50.396,22.162
1311,241.552,50.684,22.078
1383,241.61,51.167,22.131
1386,241.77,52.267,22.222
1412,241.909,52.902,22.251
1454,241.924,53.353,22.195
1490,242.065,53.905,22.313
1525,242.081,54.396,22.248
1561,242.21,55.02,22.31
1603,242.262,55.593,22.298
1643,242.348,56.272,22.315
1676,242.265,56.364,22.307
1709,242.031,54.802,22.251
1743,241.782,52.703,22.149
1792,241.721,51.61,22.277
1836,241.664,51.313,22.281
1875,241.712,51.135,22.317
1892,241.754,51.265,22.334
1945,241.809,51.557,22.211
1973,241.816,51.723,22.18
2008,241.833,51.754,22.118
2041,241.845,51.9,22.096
2090,241.906,52.285,22.116
2125,241.991,52.763,22.117
2154,242.049,53.211,22.038
2193,242.144,53.787,22.009
2226,242.224,54.387,22.137
2273,242.29,54.904,22.078
2347,242.372,55.909,22.109
2385,242.444,56.463,22.163
2415,242.478,56.98,22.145
2461,242.545,57.579,22.242
2495,242.621,58.104,22.277
2529,242.639,58.632,22.187
2584,242.404,57.895,22.115
2604,242.174,55.508,22.206
2650,241.999,53.403,22.321
2682,241.886,52.466,22.227
2712,241.835,51.999,22.278
2746,241.859,51.565,22.192
2792,241.847,51.446,22.17
2821,241.888,51.499,22.17
2867,241.926,51.634,22.107
2921,241.963,51.733,22.127
2964,242.015,51.888,22.148
2997,242.034,52.193,22.147
3040,242.101,52.612,22.219
3064,242.181,53.061,22.172
3183,242.228,53.535,22.108
3204,242.257,54.048,22.192
3241,242.326,54.552,22.156
3326,242.424,55.062,22.146
3368,242.48,55.563,22.123
3394,242.551,57.082,22.121
3407,242.551,57.082,22.121
3425,242.644,58.128,22.101
3466,242.749,58.823,22.079
3514,242.774,59.234,22.086
3549,242.485,58.276,22.091
3584,242.172,55.721,22.001
3621,242.005,53.397,22.056
3697,241.85,51.819,22.191
3727,241.853,51.318,22.132
3763,241.814,51.148,22.155
3817,241.852,51.154,22.066
3846,241.835,51.212,22.059
3891,241.829,51.222,22.074
3943,241.851,51.247,22.119
3992,241.879,51.576,22.083
4020,241.932,51.981,22.097
4034,241.997,52.479,22.085
4069,242.069,52.954,22.092
4101,242.128,53.419,22.025
4136,242.218,53.959,22.118
4169,242.265,54.492,22.178
4219,242.387,55.055,22.195
4257,242.421,55.592,22.125
4284,242.478,56.166,22.19
4321,242.506,56.749,22.272
4366,242.617,57.379,22.268
4412,242.662,57.934,22.189
4442,242.032,55.322,22.166
4466,241.856,52.567,22.247
4553,241.856,54.204,22.085
4588,242.031,53.482,22.149
4622,241.986,52.339,22.202
4664,241.935,52.37,22.065
4704,241.899,52.365,22.156
4755,241.851,52.05,22.137
4780,241.986,52.269,22.094
4820,241.943,52.403,22.061
4866,241.899,52.365,22.156
4954,242.085,53.318,22.237
4985,242.193,53.883,22.292
5062,242.288,54.554,22.199
5081,242.448,55.205,22.325
5102,242.426,55.662,22.194
5145,242.464,56.18,22.179
5174,242.471,56.713,22.152
5222,242.486,57.227,22.191
5261,242.555,57.801,22.197
5292,242.656,58.381,22.12
5348,242.768,58.998,22.128
5372,242.861,59.648,22.146
5410,242.612,59.146,22.111
5441,242.232,56.953,22.14
5489,242.099,54.836,22.101
5523,242.094,53.98,22.206
5547,242.067,53.811,22.347
5593,242.103,53.906,22.374
5630,242.157,54.161,22.385
5677,242.174,54.481,22.363
5709,242.126,54.564,22.306
5731,242.174,54.457,22.156
5808,242.239,54.981,22.161
5847,242.314,55.464,22.2
5883,242.381,56.158,22.245
5931,242.42,56.7,22.243
5976,242.404,57.122,22.213
6008,242.457,57.58,22.21
6042,242.551,58.062,22.3
6106,242.768,59.108,22.303
6152,242.844,59.736,22.228
6215,242.959,60.503,22.312
6245,242.976,61.126,22.204
6285,242.835,61.058,22.261
6368,242.034,56.131,22.388
6378,241.89,54.394,22.266
6411,241.856,53.746,22.318
6442,241.785,53.459,22.274
6499,241.919,53.289,22.292
6527,241.907,53.397,22.236
6579,241.908,53.456,22.222
6626,241.92,53.457,22.244
6678,241.939,53.671,22.173
6691,241.939,53.671,22.173
6710,242.066,54.155,22.232
6742,242.133,54.695,22.235
6828,242.145,55.166,22.243
6860,242.166,55.711,22.211
6921,242.216,56.196,22.115
6925,242.272,56.719,22.142
6938,242.371,57.3,22.318
6967,242.435,57.801,22.249
6992,242.499,58.329,22.239
7043,242.576,58.839,22.155
7084,242.71,59.428,22.14
7118,242.691,59.815,22.085
7142,242.326,58.555,22.099
7202,241.933,55.728,22.124
7219,241.685,53.492,22.212
7280,241.584,52.558,22.211
7309,241.556,52.255,22.218
7343,241.534,52.05,22.236
7379,241.6,51.953,22.182
7403,241.651,52.182,22.184
7454,241.665,52.345,22.245
7479,241.717,52.462,22.262
7511,241.767,52.653,22.2
7578,241.854,53.079,22.172
7616,241.947,53.633,22.193
7656,241.992,54.23,22.155
7732,242.124,55.43,22.167
7752,242.231,56.055,22.153
7784,242.256,56.569,22.205
7816,242.342,57.199,22.249
7863,242.379,57.691,22.163
7901,242.448,58.165,22.156
7946,242.584,58.793,22.175
7981,242.745,59.608,22.15
8018,242.699,59.785,22.151
8043,242.194,57.783,22.055
8078,241.878,55.117,22.083
8177,241.706,53.248,22.247
8257,241.711,53.201,22.222
8289,241.823,53.436,22.116
8331,241.904,53.568,22.156
8380,241.909,53.535,22.176
8413,241.924,53.628,22.097
8452,241.971,53.96,22.157
8467,242.058,54.444,22.14
8493,242.132,54.994,22.03
8529,242.183,55.485,22.057
8569,242.236,56.012,22.128
8599,242.277,56.462,22.11
8647,242.311,56.944,22.183
8685,242.445,57.358,22.214
8716,242.521,57.685,22.269
8770,242.617,58.003,22.291
8818,242.683,58.306,22.27
8849,242.63,58.385,22.186
8886,242.275,56.711,22.192
8904,241.95,53.48,22.228
8953,241.661,50.983,22.197
8986,241.605,49.735,22.165
9039,241.63,49.123,22.185
9044,241.68,48.805,22.244
9096,241.692,48.728,22.259
9144,241.668,48.606,22.203
9200,241.723,48.175,22.09
9201,241.612,47.818,21.996
9247,241.666,47.616,21.924
9286,241.613,47.506,21.909
9326,241.653,47.545,21.924
9350,241.677,47.563,21.847
9386,241.708,47.543,21.866
9423,241.698,47.486,21.864
9463,241.716,47.499,21.874
9497,241.693,47.466,21.821
9539,241.713,47.399,21.839
9563,241.709,47.416,21.788
9598,241.759,47.556,21.771
9635,241.768,47.709,21.739
9683,241.614,47.584,21.64
9713,241.058,45.815,21.489
9764,240.6,43.136,21.296
9813,240.274,41.172,21.2
9893,240.118,39.758,21.218
9911,240.0,39.455,21.152
9948,240.029,39.193,21.015
9981,240.0,39.212,20.891
10014,240.184,39.325,20.901
10049,240.287,39.692,21.011
10089,240.37,40.029,20.957
10142,240.358,40.294,20.987
10169,240.7,40.944,21.059
10231,240.966,42.001,21.057
10232,241.053,42.601,21.027
10286,241.045,43.0,21.088
10316,241.09,43.357,21.117
10353,241.282,43.86,21.221
10384,241.384,44.347,21.202
10434,241.381,44.74,21.323
10467,241.506,45.136,21.351
10499,241.761,45.82,21.381
10532,241.966,46.616,21.481
10566,242.237,47.515,21.68
10615,241.999,47.089,21.656
10650,241.756,45.845,21.693
10684,241.759,45.033,21.734
10733,241.779,45.009,21.762
10771,241.797,45.272,21.76
10813,241.908,45.565,21.738
10849,242.009,46.132,21.776
10877,242.205,46.855,21.803
10918,242.274,47.426,21.783
10943,242.339,47.935,21.832
10983,242.466,48.53,21.809
11016,242.632,49.339,21.91
11051,242.796,50.322,21.93
11100,242.96,51.492,22.011
11151,243.117,52.825,21.975
11212,243.636,56.226,21.939
11268,243.731,57.945,21.893
11293,243.964,59.849,21.837
11319,244.264,61.816,21.744
11358,244.435,63.643,21.63
11405,244.679,65.702,21.635
11437,244.989,67.586,21.632
11464,244.927,68.866,21.571
11503,244.594,68.353,21.484
11552,244.458,68.0,21.475
11585,244.579,68.213,21.568
11618,244.71,68.566,21.867
11655,244.863,68.619,21.981
11687,244.993,68.385,22.25
11735,244.95,67.84,22.267
11769,244.916,67.196,22.27
11804,244.883,66.762,22.297
11855,245.001,66.441,22.445
11886,245.092,66.53,22.444
11917,245.167,66.61,22.314
11955,245.106,66.529,22.307
11986,245.107,66.489,22.352
12039,245.12,66.517,22.245
12061,245.112,66.581,22.226
12105,245.079,66.452,22.195
12136,245.023,66.504,22.219
12184,244.955,66.197,22.219
12221,244.985,66.221,22.17
12256,244.88,66.025,22.155
12290,244.655,65.313,22.186
12318,244.27,63.202,22.174
12371,244.08,61.23,22.115
12405,243.822,59.861,22.182
12437,243.768,59.075,22.183
12473,243.762,58.749,22.137
12505,243.908,58.904,22.174
12555,243.825,58.746,22.084
12588,243.858,58.712,22.002
12615,243.839,58.712,21.981
12654,243.781,58.754,21.93
12705,243.805,58.964,21.915
12729,243.892,59.329,21.963
12772,243.928,59.641,21.959
12822,244.053,60.08,21.871
12857,244.172,60.511,21.853
12902,244.967,62.178,22.21
12914,245.37,64.512,22.145
12965,245.911,67.715,22.071
13006,246.327,70.237,22.131
13030,246.413,71.864,22.151
13078,246.27,72.335,22.075
13106,245.854,71.433,21.919
13143,245.635,69.992,21.925
13173,245.44,69.24,22.011
13225,245.345,69.026,21.976
13253,245.266,68.827,22.011
13302,245.331,69.123,22.068
13339,245.325,69.545,21.971
13365,245.275,69.83,21.899
13424,245.267,69.901,21.887
13459,245.25,70.032,21.752
13482,245.247,70.507,21.742
13524,245.265,70.921,21.671
13569,245.32,71.472,21.664
13590,245.384,72.008,21.684
13622,245.445,72.536,21.601
13680,245.429,72.787,21.658
13713,245.405,73.012,21.645
13743,245.42,73.252,21.583
13766,245.445,73.628,21.477
13808,245.597,74.561,21.467
13866,245.603,75.536,21.382
13922,244.988,73.839,21.159
13957,244.782,72.561,21.136
14009,244.707,72.13,21.4
14041,244.587,71.777,21.346
14074,244.593,71.829,21.353
14111,244.671,72.323,21.266
14149,244.837,73.172,21.089
14216,244.895,73.771,21.127
14228,244.906,74.022,21.143
14257,245.006,74.62,21.115
14291,245.011,75.507,21.052
14333,245.04,76.128,21.032
14375,245.145,76.473,21.103
14418,245.279,77.086,21.144
14450,245.361,77.625,21.116
14491,245.465,78.103,21.105
14527,245.558,78.758,21.053
14577,245.611,79.342,20.975
14608,245.716,79.956,20.856
14633,245.77,80.563,20.934
14675,245.745,80.623,20.937
14711,245.679,80.732,20.909
14742,245.415,79.97,20.859
14775,245.156,78.632,20.805
14824,244.934,77.392,20.799
14858,244.924,77.081,20.908
14904,245.006,77.462,20.902
14952,245.135,78.027,20.886
14971,245.235,78.665,20.753
15028,245.408,79.761,20.853
15089,245.575,81.46,20.621
15128,245.65,81.792,20.683
15171,245.647,81.919,20.662
15219,245.56,81.733,20.832
15252,245.522,81.16,20.959
15317,245.498,80.458,21.1
15342,245.414,79.714,21.136
15391,245.309,78.861,21.141
15422,245.188,77.742,21.007
15483,245.115,77.429,21.013
15524,244.262,74.139,21.354
15556,245.017,76.831,21.169
15588,244.129,71.149,21.369
15612,244.457,72.574,21.166
15639,244.243,70.571,21.314
15689,244.173,69.807,21.4
15711,244.129,69.417,21.421
16324,243.631,67.511,21.246
16624,243.721,67.887,21.066
16631,243.746,68.212,21.034
16657,243.78,68.992,20.991
16670,244.091,71.316,20.875
16691,243.908,71.381,20.802
16712,243.369,69.152,20.836
16717,243.042,66.785,20.954
16803,242.934,64.889,20.925
16820,243.369,69.152,20.836
16863,243.042,66.785,20.954
16894,243.012,65.505,20.992
16906,242.934,64.889,20.925
16978,242.917,64.587,21.019
16997,242.978,64.388,20.997
17018,243.031,64.853,20.955
17066,243.032,64.855,20.904
17117,243.068,64.889,20.862
17136,243.268,65.92,20.932
17181,243.268,65.92,20.932
17208,243.29,66.632,20.882
17250,243.34,67.127,20.893
17284,243.369,66.809,20.804
17464,243.429,66.806,20.904
17483,243.438,67.14,20.835
17485,243.346,68.355,20.769
17515,243.588,70.106,20.843
17552,243.671,70.609,20.757
17615,243.757,71.214,20.732
17648,243.712,71.481,20.702
17660,243.33,70.008,20.643
17689,242.961,67.996,20.725
17725,242.898,66.8,20.757
17766,242.844,66.38,20.793
17799,242.891,66.262,20.849
17857,242.923,66.299,20.845
17876,242.898,66.8,20.757
17942,242.891,66.262,20.849
18006,242.923,66.299,20.845
18035,242.898,66.8,20.757
18069,242.844,66.38,20.793
18103,242.891,66.262,20.849
18134,242.923,66.299,20.845
18170,242.898,66.8,20.757
18221,242.844,66.38,20.793
18243,242.891,66.262,20.849
18302,242.923,66.299,20.845
18465,242.988,66.848,20.794
18531,243.077,67.542,20.662
18538,243.213,68.146,20.606
18586,243.264,68.677,20.662
18649,243.319,69.222,20.656
18671,243.413,69.747,20.655
18708,243.499,70.274,20.554
18728,243.569,70.839,20.499
18773,243.643,71.512,20.553
18813,243.714,72.043,20.576
18838,243.745,72.61,20.563
18880,243.724,73.098,20.508
18913,243.615,73.162,20.519
18982,243.285,71.39,20.523
18989,243.032,69.273,20.654
19039,242.951,68.308,20.759
19102,242.975,68.252,20.759
19103,242.975,68.252,20.759
19139,243.048,68.294,20.711
19194,243.091,68.592,20.706
19243,243.125,68.762,20.571
19275,243.137,68.837,20.58
19310,243.177,69.062,20.661
19339,243.248,69.498,20.67
19367,243.324,69.972,20.792
19405,243.371,70.543,20.77
19439,243.458,71.047,20.775
19477,243.55,71.623,20.617
19544,243.545,71.97,20.62
19596,243.537,72.681,20.631
19617,243.562,73.136,20.553
19679,243.613,73.614,20.524
19708,243.654,74.04,20.554
19743,243.373,73.173,20.567
19822,243.057,70.142,20.751
19861,243.069,69.884,20.743
19915,243.084,70.069,20.771
19931,243.225,70.55,20.823
19983,243.274,71.122,20.787
20010,243.26,71.415,20.759
20039,243.308,71.761,20.697
20076,243.429,72.387,20.545
20108,243.493,73.127,20.539
20155,243.594,73.851,20.488
20195,243.745,74.569,20.489
20226,243.889,75.349,20.486
20247,243.929,75.953,20.482
20298,243.935,76.346,20.409
20346,243.946,76.699,20.403
20376,244.006,77.16,20.372
20420,243.992,77.606,20.355
20459,243.71,76.96,20.276
20497,243.395,74.993,20.319
20524,243.171,73.542,20.356
20572,243.199,73.159,20.407
20588,243.213,73.231,20.384
20645,243.266,73.507,20.43
20684,243.406,74.07,20.442
20704,243.514,74.458,20.476
20776,243.467,74.559,20.417
20818,243.45,74.715,20.276
20838,243.543,74.938,20.348
20871,243.573,75.372,20.349
20895,243.662,75.941,20.332
20940,243.762,76.519,20.324
20963,243.86,77.067,20.275
21001,243.893,77.508,20.265
21043,243.928,77.914,20.269
21093,243.918,78.351,20.117
21121,243.913,78.713,20.152
21151,243.494,77.108,20.275
21194,243.15,74.624,20.298
21226,243.049,73.154,20.538
21294,242.984,72.614,20.569
21327,243.034,72.78,20.572
21358,243.047,73.04,20.545
21410,243.126,73.377,20.42
21444,243.223,73.632,20.438
21478,243.19,73.733,20.452
21511,243.3,74.15,20.36
21551,243.403,74.704,20.455
21594,243.453,75.195,20.436
21646,243.554,75.794,20.364
21671,243.57,76.309,20.294
21711,243.632,76.789,20.297
21745,243.68,77.266,20.226
21778,243.73,77.833,20.221
21811,243.649,78.055,20.232
21862,243.339,76.598,20.2
21896,242.97,74.126,20.366
21932,242.843,72.667,20.466
21961,242.822,72.391,20.544
21995,242.83,72.452,20.519
22046,242.955,72.702,20.433
22080,243.051,73.192,20.415
22111,243.045,73.357,20.395
22155,243.093,73.531,20.408
22195,243.129,73.78,20.393
22228,243.19,74.169,20.332
22264,243.283,74.705,20.351
22295,243.367,75.281,20.226
22344,243.408,75.794,20.243
22370,243.477,76.254,20.212
22412,243.495,76.705,20.185
22446,243.547,77.153,20.147
22497,243.641,77.716,20.256
22528,243.659,78.182,20.243
22562,243.416,77.696,20.114
22599,243.086,75.511,20.217
22682,242.826,72.647,20.435
22729,242.775,72.598,20.454
22767,242.822,72.807,20.481
22803,242.971,73.196,20.405
22835,243.009,73.56,20.363
22889,242.973,73.59,20.264
22912,242.975,73.592,20.273
22942,243.025,73.728,20.268
22965,243.08,74.126,20.279
23015,243.118,74.657,20.236
23048,243.138,75.08,20.189
23081,243.249,75.51,20.116
23115,243.36,76.021,20.098
23148,243.408,76.531,20.302
23198,243.456,76.969,20.218
23247,243.413,77.403,20.067
23261,243.286,77.287,19.991
23298,242.937,75.527,20.103
23348,242.641,73.348,20.164
23380,242.594,72.349,20.262
23413,242.574,72.159,20.223
23446,242.657,72.32,20.276
23497,242.773,72.757,20.33
23533,242.83,72.955,20.263
23581,242.813,72.969,20.214
23636,242.786,72.878,20.184
23651,242.837,73.014,20.255
23681,242.885,73.35,20.278
23716,242.953,73.822,20.237
23764,243.072,74.528,20.19
23790,243.17,75.232,20.198
23834,243.17,75.624,20.112
23875,243.231,76.024,20.037
23915,243.283,76.518,20.192
23931,243.341,77.001,20.169
23980,243.226,77.046,20.115
24015,242.928,75.55,20.11
24049,242.55,73.238,20.232
24082,242.347,71.701,20.291
24125,242.335,71.278,20.243
24165,242.343,71.25,20.244
24198,242.466,71.293,20.234
24232,242.485,71.505,20.214
24277,242.49,71.546,20.139
24317,242.427,71.369,20.122
24351,242.427,71.33,20.175
24384,242.45,71.427,20.148
24418,242.434,71.659,20.147
24468,242.493,72.039,20.088
24500,242.578,72.589,20.091
24536,242.663,73.068,20.06
24567,242.642,73.283,20.087
24627,242.675,73.496,20.069
24657,242.731,73.777,20.04
24684,242.758,74.139,20.11
24717,242.802,74.435,20.027
24750,242.644,74.073,20.051
24800,242.091,71.411,20.112
24843,241.84,68.662,20.172
24861,241.666,67.27,20.247
24902,241.622,66.653,20.281
24936,241.567,66.233,20.325
24985,241.584,66.074,20.28
25019,241.639,66.001,20.244
25052,241.618,65.927,20.267
25086,241.548,65.71,20.305
25136,241.513,65.559,20.296
25169,241.594,65.741,20.298
25202,241.653,66.093,20.357
25236,241.723,66.566,20.288
25287,241.76,66.928,20.247
25333,241.851,67.485,20.16
25360,241.987,67.989,20.183
25385,241.994,68.3,20.214
25427,242.019,68.603,20.168
25468,242.054,69.117,20.213
25502,242.164,69.696,20.228
25537,242.165,70.275,20.151
25569,242.009,70.148,20.132
25619,241.569,67.789,20.19
25658,241.033,64.726,20.166
25680,240.906,63.065,20.211
25721,240.889,62.296,20.272
25755,240.935,61.881,20.282
25805,240.907,61.811,20.216
25856,240.996,61.914,20.075
25888,241.02,62.089,20.098
25913,241.02,62.095,20.109
25953,241.041,62.282,20.05
25987,241.114,62.682,20.158
26021,241.16,63.181,20.142
26055,241.226,63.781,20.052
26104,241.276,64.385,20.031
26138,241.26,64.931,20.059
26171,241.342,65.48,20.026
26205,241.454,66.007,20.038
26254,241.565,66.535,20.049
26288,241.602,66.944,20.045
26322,241.673,67.358,20.038
26354,241.806,67.952,20.082
26396,241.846,68.503,20.045
26436,241.587,67.973,20.066
26469,240.998,65.431,20.103
26503,240.821,63.153,20.168
26537,240.812,62.219,20.198
26587,240.823,62.097,20.236
26622,240.81,62.112,20.194
26672,240.941,62.314,20.112
26697,241.072,62.815,20.179
26724,240.999,62.953,20.165
26765,240.974,63.0,20.152
26806,241.014,63.108,20.068
26966,241.147,64.515,20.089
26972,241.25,65.195,20.142
27017,241.306,65.78,20.063
27032,241.376,66.251,19.929
27073,241.462,66.756,19.995
27106,241.548,67.27,20.011
27140,241.642,67.791,19.994
27173,241.565,68.058,20.004
27206,241.226,66.946,19.921
27249,240.722,64.521,20.046
27291,240.644,62.89,20.102
27325,240.69,62.537,20.081
27383,240.722,62.681,20.12
27401,240.844,62.946,19.992
27442,240.972,63.568,19.992
27475,241.035,63.901,20.062
27524,241.022,63.975,20.047
27549,241.043,64.085,19.917
27590,241.086,64.409,19.891
27622,241.096,64.873,19.961
27673,241.213,65.483,19.973
27719,241.371,66.185,19.954
27749,241.507,66.888,20.021
27779,241.569,67.381,19.978
27816,241.695,67.844,19.958
27874,241.681,68.31,19.987
27897,241.637,68.467,19.947
27926,241.235,66.972,19.882
27962,240.717,64.169,19.982
28016,240.497,62.075,20.074
28034,240.464,61.329,20.122
28077,240.466,61.082,20.128
28111,240.466,61.033,20.14
28160,240.562,61.191,19.953
28178,240.59,61.36,19.953
28211,240.522,61.197,19.943
28260,240.513,61.202,19.909
28294,240.591,61.516,19.926
28328,240.69,61.94,19.97
28362,240.777,62.472,19.957
28402,240.822,62.868,19.95
28445,240.827,63.219,19.885
28478,240.876,63.59,19.901
28511,240.829,63.917,19.956
28562,240.907,64.338,19.908
28611,240.947,64.804,19.871
28624,240.586,63.41,19.841
28661,239.979,60.098,19.889
28717,239.647,57.459,20.009
28744,239.548,56.159,19.974
28779,239.553,55.533,20.04
28812,239.549,54.985,20.049
28844,239.582,54.93,20.03
28896,239.648,55.125,19.981
28929,239.603,55.14,20.016
28967,239.639,55.057,19.918
29006,239.727,55.372,19.939
29046,239.807,55.899,19.91
29079,239.858,56.402,19.973
29142,240.024,57.041,19.979
29153,240.126,57.696,20.02
29180,240.064,58.024,19.975
29229,240.112,58.445,19.94
29263,240.237,59.166,19.973
29297,240.326,59.799,19.904
29331,240.356,60.184,19.881
29370,239.972,59.059,19.836
29412,239.553,55.984,19.879
29445,239.301,53.632,19.944
29479,238.991,52.347,19.985
29529,238.936,51.654,20.052
29562,238.955,51.138,19.844
29596,239.087,51.22,19.849
29645,239.155,51.447,19.899
29680,239.078,51.424,19.847
29727,239.103,51.445,19.742
29747,239.215,51.766,19.769
29781,239.267,52.24,19.811
29814,239.438,52.943,19.841
29865,239.599,53.667,19.814
29899,239.752,54.436,19.794
29932,239.923,55.315,19.823
29964,240.085,56.109,19.836
30015,240.152,56.85,19.899
30047,240.259,57.657,19.882
30081,240.293,58.47,19.806
30124,240.112,58.338,19.767
30163,239.677,55.782,19.855
30196,239.199,52.864,19.839
30230,239.018,51.236,19.899
30263,238.991,50.612,19.908
30297,239.037,50.244,19.91
30347,239.158,50.308,19.992
30381,239.223,50.587,19.898
30413,239.24,50.854,19.945
30447,239.365,51.253,19.836
30497,239.539,51.819,19.943
30532,239.551,52.253,19.964
30565,239.662,52.859,19.956
30597,239.847,53.724,19.932
30649,240.001,54.53,19.879
30691,240.178,55.418,19.859
30711,240.448,56.447,19.936
30750,240.673,57.656,20.078
30802,240.672,58.542,20.0
30835,240.654,59.175,19.962
30867,240.584,59.143,20.015
30901,240.254,57.074,19.989
30935,240.029,55.027,20.043
30968,239.929,54.325,20.245
31017,240.027,54.408,20.294
31050,239.962,54.273,20.131
31084,239.97,54.249,20.106
31129,240.029,54.42,20.072
31167,240.044,54.547,20.117
31216,240.019,54.537,19.97
31233,240.083,54.799,20.001
31269,240.172,55.231,20.016
31320,240.308,55.854,20.021
31352,240.401,56.533,19.986
31385,240.491,57.207,20.016
31419,240.509,57.744,19.983
31459,240.648,58.484,20.066
31502,240.652,59.14,19.901
31536,240.598,59.577,19.8
31569,240.404,59.199,19.878
31602,240.067,56.896,19.905
31652,239.841,54.926,19.994
31686,239.736,54.094,20.02
31719,239.756,54.034,20.052
31764,239.876,54.288,20.09
31786,240.146,54.776,20.114
31836,240.196,55.208,19.986
31869,240.244,55.519,20.034
31903,240.245,55.658,20.01
31937,240.283,55.939,20.006
31987,240.393,56.484,20.036
32020,240.382,57.085,19.92
32054,240.441,57.716,19.878
32087,240.525,58.31,19.93
32140,240.619,58.988,19.929
32159,240.724,59.671,19.999
32204,240.788,60.234,19.956
32253,240.924,60.844,19.951
32287,241.091,61.55,19.998
32321,241.044,61.754,19.972
32354,240.535,60.035,19.936
32386,240.216,57.485,19.876
32421,240.266,56.244,20.054
32469,240.28,56.056,20.181
32504,240.262,56.177,20.174
32537,240.445,56.471,20.068
32572,240.482,56.893,20.078
32604,240.472,57.048,20.069
32656,240.497,57.072,20.03
32688,240.518,57.298,20.126
32721,240.58,57.73,20.124
32780,240.656,58.376,20.084
32827,240.721,58.969,20.092
32876,240.855,59.668,20.026
32885,240.957,60.295,20.038
32916,241.063,60.852,19.953
32969,241.196,61.405,19.98
33007,241.357,62.025,20.051
33053,241.45,62.63,20.012
33102,241.275,62.601,19.907
33125,240.778,60.598,19.944
33149,240.603,58.439,20.049
33169,240.558,57.384,20.102
33204,240.568,57.22,20.245
33255,240.652,57.456,20.293
33288,240.86,57.951,20.181
33323,240.918,58.304,20.198
33355,240.829,58.307,20.106
33388,240.853,58.405,20.08
33439,240.892,58.729,20.033
33472,240.962,59.181,20.085
33505,241.011,59.741,20.112
33539,241.126,60.382,20.171
33588,241.244,61.025,20.097
33622,241.346,61.537,20.14
33655,241.448,62.085,20.191
33690,241.527,62.647,20.109
33723,241.623,63.318,20.142
33773,241.626,63.845,20.102
33807,241.421,63.14,20.047
33851,240.885,60.448,20.088
33872,240.634,58.262,20.246
33925,240.656,57.536,20.248
33957,240.726,57.531,20.419
33990,240.721,57.626,20.377
34024,240.866,57.927,20.324
34059,240.937,58.359,20.309
34122,240.949,58.567,20.165
34141,240.94,58.677,20.164
34175,240.94,58.999,20.178
34208,241.029,59.508,20.175
34258,241.163,60.091,20.242
34291,241.275,60.739,20.187
34343,241.303,61.312,20.182
34362,241.414,61.862,20.148
34394,241.485,62.387,20.135
34443,241.559,62.998,20.074
34476,241.593,63.517,20.094
34510,241.635,64.063,20.049
34544,241.501,63.881,20.078
34584,241.017,61.235,20.151
34627,240.647,58.523,20.248
34659,240.63,57.255,20.289
34693,240.586,56.911,20.377
34728,240.591,56.781,20.377
34767,240.766,56.975,20.313
34820,240.778,57.292,20.306
34839,240.702,57.131,20.169
34886,240.726,57.083,20.195
34927,240.698,57.091,20.167
34962,240.743,57.349,20.257
34994,240.834,58.006,20.121
35028,240.883,58.658,20.118
35078,240.944,59.25,20.194
35119,241.026,59.869,20.225
35138,241.153,60.496,20.175
35178,241.217,60.944,20.088
35212,241.335,61.54,20.177
35261,241.392,62.061,20.154
35295,241.484,62.606,20.119
35329,241.343,62.357,20.103
35362,240.652,59.799,20.131
35402,240.459,57.275,20.261
35443,240.4,56.283,20.284
35478,240.444,56.188,20.315
35511,240.631,56.374,20.33
35545,240.64,56.486,20.291
35594,240.641,56.532,20.244
35630,240.586,56.344,20.254
35662,240.475,55.973,20.204
35698,240.472,55.849,20.276
35736,240.505,56.063,20.095
35779,240.59,56.494,20.154
35812,240.688,56.995,20.183
35852,240.702,57.412,20.196
35889,240.731,57.913,20.166
35929,240.768,58.438,20.1
35963,240.796,58.878,20.12
35997,240.893,59.426,20.128
36046,241.027,60.071,20.177
36079,241.099,60.686,20.09
36117,240.821,60.126,20.096
36145,240.466,57.623,20.125
36180,240.261,55.656,20.05
36229,240.203,54.934,20.096
36263,240.278,55.051,20.24
36297,240.398,55.506,20.279
36331,240.63,56.072,20.089
36365,240.692,56.572,20.11
36418,240.73,56.878,20.193
36445,240.75,57.138,20.101
36479,240.806,57.629,20.112
36530,240.883,58.326,20.081
36563,240.979,59.143,20.06
36594,241.106,59.975,20.038
36631,241.184,60.689,20.046
36680,241.327,61.371,20.014
36714,241.504,62.031,20.119
36747,241.611,62.675,20.161
36781,241.584,63.206,19.964
36814,241.536,63.362,19.979
36871,241.09,61.514,20.078
36897,240.777,59.169,20.166
36932,240.663,57.922,20.192
36965,240.621,57.507,20.208
36999,240.727,57.519,20.318
37040,240.792,57.916,20.285
37094,240.906,58.345,20.16
37122,240.898,58.501,20.139
37149,240.9,58.597,20.116
37199,240.936,58.888,20.125
37231,240.981,59.322,20.045
37283,241.074,59.982,20.081
37299,241.226,60.698,19.939
37332,241.345,61.322,19.936
37383,241.413,61.852,19.96
37430,241.548,62.4,19.969
37450,241.594,62.939,20.054
37483,241.704,63.571,20.057
37525,241.752,64.259,20.069
37569,241.697,64.495,20.037
37601,241.282,62.572,19.936
37635,240.781,59.709,20.033
37685,240.619,57.813,20.241
37717,240.707,57.323,20.316
37752,240.684,57.213,20.21
37785,240.755,57.399,20.256
37818,240.96,57.85,20.239
37900,240.97,58.249,20.207
37914,241.01,58.465,20.174
37945,240.974,58.652,20.12
37997,241.032,59.076,20.152
38018,241.099,59.663,20.14
38071,241.188,60.287,20.169
38102,241.274,60.869,20.096
38143,241.479,61.58,20.071
38173,241.599,62.18,20.148
38211,241.647,62.713,20.157
38230,241.687,63.113,20.205
38270,241.624,63.42,20.056
38319,241.642,63.812,20.093
38352,241.668,64.307,20.004
38384,241.404,63.125,20.012
38418,240.762,59.966,20.086
38453,240.556,57.468,20.214
38493,240.478,56.455,20.315
38535,240.495,56.107,20.345
38568,240.541,55.946,20.286
38602,240.589,56.206,20.311
38635,240.716,56.528,20.285
38686,240.725,56.698,20.268
38719,240.695,56.73,20.066
38754,240.747,56.975,20.162
38786,240.828,57.491,20.258
38823,240.889,58.195,20.283
38869,240.901,58.784,20.152
38910,240.966,59.397,20.168
38952,241.069,60.11,20.141
38997,241.124,60.568,20.1
39016,241.265,61.15,20.125
39053,241.271,61.506,20.034
39099,241.374,62.018,20.032
39121,241.452,62.554,20.045
39171,241.495,63.093,19.944
39205,241.565,63.536,19.999
39238,241.118,61.875,20.065
39272,240.532,58.805,20.109
39321,240.399,56.814,20.139
39354,240.362,56.164,20.151
39388,240.456,56.163,20.206
39422,240.389,56.087,20.155
39458,240.542,56.347,20.062
39511,240.558,56.609,20.109
39540,240.553,56.716,20.098
39572,240.58,56.952,20.104
39622,240.638,57.314,20.082
39641,240.675,57.74,20.061
39689,240.714,58.229,20.117
39722,240.769,58.845,20.115
39755,240.876,59.455,20.091
39806,240.987,60.056,20.069
39839,241.093,60.705,20.022
39872,241.194,61.232,20.034
39929,241.216,61.704,20.012
39956,241.303,62.232,20.015
39989,241.389,62.793,20.048
40023,241.472,63.369,20.021
40056,241.44,63.862,20.064
40100,241.211,63.234,20.027
40138,240.531,60.185,19.975
40172,240.213,57.575,20.072
40207,240.169,56.568,20.084
40239,240.197,56.354,20.158
40288,240.317,56.385,20.19
40322,240.426,56.73,20.234
40357,240.441,56.84,20.149
40390,240.474,56.964,20.122
40424,240.504,57.014,20.124
40473,240.558,57.313,20.104
40507,240.585,57.853,20.104
40555,240.677,58.548,20.086
40593,240.755,59.15,20.071
40625,240.84,59.787,20.058
40659,240.953,60.364,20.084
40692,241.028,60.803,20.077
40725,241.082,61.221,20.122
40759,241.112,61.464,20.173
40809,241.078,61.71,20.004
40842,241.252,62.421,19.964
40876,241.209,62.868,19.994
40922,240.999,62.167,19.981
40957,240.385,59.724,20.052
40991,240.154,57.711,20.018
41025,240.168,57.148,20.176
41066,240.234,57.251,20.229
41101,240.272,57.271,20.048
41143,240.247,57.436,20.057
41178,240.262,57.402,20.065
41211,240.223,57.308,20.059
41271,240.254,57.288,20.162
41293,240.289,57.526,20.135
41327,240.317,57.931,20.117
41358,240.326,58.38,20.019
41410,240.465,59.02,20.142
41443,240.491,59.568,20.086
41477,240.61,60.123,19.956
41510,240.699,60.561,19.959
41544,240.77,60.997,19.864
41594,240.905,61.604,19.926
41624,240.946,62.178,20.005
41658,240.818,61.938,19.939
41692,240.141,59.6,19.798
41742,239.828,57.228,19.859
41775,239.797,56.321,19.956
41809,239.831,56.17,19.978
41843,239.973,56.304,19.987
41876,240.008,56.703,20.014
41925,240.053,57.03,19.942
41978,240.012,57.226,19.92
42015,239.98,57.185,19.845
42038,239.995,57.365,19.877
42088,240.076,57.858,19.955
42119,240.138,58.363,19.955
42155,240.223,59.007,19.825
42178,240.372,59.638,19.837
42211,240.494,60.21,19.829
42261,240.602,60.773,19.844
42295,240.788,61.532,19.907
42329,240.892,62.222,19.851
42363,240.825,62.453,19.816
42413,240.415,60.764,19.766
42446,239.744,57.893,19.905
42479,239.634,56.228,19.938
42511,239.622,55.855,20.027
42546,239.668,55.985,20.036
42596,239.84,56.331,19.893
42645,239.895,56.838,19.916
42663,239.948,57.155,19.895
42696,240.034,57.318,19.932
42731,240.019,57.408,19.894
42781,240.015,57.685,19.832
42814,240.155,58.276,19.943
42847,240.278,58.899,19.866
42882,240.351,59.493,19.85
42922,240.519,60.057,19.922
42965,240.559,60.412,19.839
43030,240.615,60.806,19.852
43054,240.619,61.187,19.81
43092,240.495,60.817,19.819
43129,239.938,58.535,19.839
43163,239.701,56.26,19.94
43195,239.551,55.176,20.017
43225,239.523,54.95,19.891
43277,239.714,55.325,19.853
43308,239.808,55.943,19.846
43332,239.912,56.298,19.831
43365,240.003,56.544,19.927
43415,239.986,56.73,19.794
43448,240.008,56.989,19.891
43482,240.016,57.416,19.773
43515,240.087,58.024,19.749
43557,240.21,58.662,19.785
43601,240.311,59.273,19.844
43633,240.448,59.845,19.866
43675,240.58,60.429,19.847
43715,240.656,61.003,19.832
43747,240.629,61.282,19.841
43783,240.096,59.599,19.787
43816,239.722,56.872,19.841
43848,239.652,55.474,19.942
43900,239.647,55.125,19.988
43933,239.699,55.207,19.984
43966,239.831,55.589,20.029
44010,239.977,56.069,19.898
44054,239.999,56.35,19.99
44082,239.95,56.388,19.899
44115,239.944,56.592,19.881
44149,240.007,56.945,20.037
44198,240.07,57.528,20.027
44232,240.223,58.298,19.959
44265,240.27,58.909,19.917
44300,240.383,59.599,19.888
44351,240.512,60.188,19.844
44382,240.593,60.737,19.852
44415,240.753,61.302,19.862
44448,240.836,61.898,19.961
44499,240.896,62.497,19.908
44532,240.922,62.934,19.863
44566,240.582,62.059,19.73
44602,239.882,58.815,19.79
44634,239.635,56.046,19.816
44667,239.478,54.674,20.027
44716,239.421,54.102,20.004
44749,239.452,53.8,19.905
44783,239.535,53.871,19.996
44816,239.64,54.063,19.917
44866,239.668,54.28,19.91
44899,239.696,54.436,19.816
44933,239.691,54.636,19.78
44966,239.762,55.026,19.844
45025,239.865,55.611,19.812
45050,239.954,56.287,19.951
45094,240.044,57.001,19.912
45118,240.08,57.641,19.8
45160,240.195,58.369,19.855
45202,240.333,59.166,19.846
45252,240.506,59.935,19.83
45269,240.632,60.593,19.849
45303,240.766,61.253,19.861
45353,240.777,61.864,19.909
45386,240.824,62.413,19.799
45420,240.904,63.053,19.875
45453,240.807,63.277,19.848
45503,240.321,61.315,19.725
45536,239.865,58.568,19.79
45570,239.727,56.927,19.85
45604,239.663,56.094,19.831
45636,239.679,55.654,19.936
45688,239.666,55.352,19.921
45723,239.779,55.356,19.885
45780,239.782,55.655,19.877
45803,239.851,55.81,19.828
45836,239.886,56.073,19.849
45872,239.932,56.401,19.743
45905,239.987,56.872,19.738
45956,240.077,57.417,19.807
45977,240.238,58.173,19.88
46039,240.242,58.739,19.83
46101,240.541,60.118,19.803
46125,240.61,60.698,19.738
46163,240.736,61.273,19.754
46205,240.779,61.802,19.68
46239,240.803,62.382,19.59
46273,240.858,62.94,19.664
46323,240.925,63.551,19.735
46355,240.946,64.08,19.701
46390,240.999,64.621,19.614
46423,240.874,64.685,19.593
46456,240.438,62.957,19.603
46507,240.235,61.01,19.598
46540,240.088,59.958,19.646
46576,240.05,59.491,19.691
46608,240.071,59.215,19.722
46648,240.043,59.073,19.699
46690,240.143,59.197,19.661
46724,240.218,59.476,19.688
46756,240.279,59.675,19.649
46803,240.308,59.878,19.69
46840,240.387,60.176,19.673
46872,240.471,60.551,19.618
46907,240.569,61.09,19.626
46940,240.653,61.614,19.64
46990,240.69,62.071,19.638
47025,240.762,62.63,19.702
47080,240.8,63.179,19.492
47107,240.844,63.701,19.475
47126,240.906,64.187,19.57
47175,240.981,64.704,19.509
47208,241.007,65.178,19.544
47241,241.104,65.701,19.527
47275,241.195,66.263,19.587
47325,241.297,66.788,19.543
47357,241.364,67.28,19.427
47391,241.337,67.568,19.432
47424,240.983,66.651,19.482
47466,240.639,65.083,19.538
47509,240.472,63.953,19.55
47542,240.468,63.493,19.558
47575,240.54,63.418,19.624
47626,240.623,63.399,19.698
47659,240.675,63.476,19.558
47693,240.72,63.655,19.549
47726,240.707,63.773,19.575
47760,240.715,63.811,19.55
47800,240.756,63.916,19.63
47851,240.818,64.204,19.664
47874,240.863,64.536,19.503
47907,240.913,64.935,19.446
47957,240.973,65.356,19.47
47991,241.035,65.723,19.403
48025,241.155,66.142,19.477
48082,241.205,66.487,19.481
48113,241.306,66.909,19.354
48134,241.311,67.266,19.327
48177,241.339,67.668,19.367
48210,241.441,68.113,19.429
48251,241.484,68.54,19.323
48293,241.543,68.998,19.269
48326,241.603,69.497,19.391
48360,241.455,69.619,19.282
48394,241.229,68.733,19.417
48444,241.029,67.295,19.388
48476,240.927,66.344,19.396
48510,240.921,65.946,19.436
48543,240.914,65.774,19.545
48576,240.945,65.732,19.597
48627,240.978,65.817,19.494
48660,240.993,65.912,19.46
48693,240.964,65.96,19.489
48726,240.985,66.035,19.443
48776,241.057,66.184,19.368
48810,241.127,66.425,19.394
48843,241.181,66.748,19.488
48890,241.241,67.122,19.462
48928,241.215,67.408,19.439
48960,241.288,67.775,19.496
48995,241.368,68.19,19.433
49036,241.43,68.585,19.437
49070,241.51,69.027,19.401
49113,241.467,69.356,19.351
49146,241.514,69.793,19.396
49179,241.555,70.109,19.329
49213,241.598,70.509,19.284
49247,241.645,70.911,19.323
49298,241.575,71.029,19.367
49330,241.239,69.925,19.301
49363,241.082,68.365,19.35
49404,241.125,67.399,19.444
49447,241.07,66.905,19.595
49480,241.105,66.765,19.604
49514,241.179,66.784,19.586
49547,241.189,66.896,19.587
49598,241.24,66.992,19.499
49630,241.238,66.963,19.509
49664,241.224,66.941,19.486
49699,241.219,67.029,19.473
49731,241.317,67.34,19.512
49781,241.32,67.551,19.512
49815,241.337,67.844,19.491
49848,241.432,68.239,19.563
49882,241.481,68.657,19.487
49943,241.48,68.944,19.512
49965,241.502,69.321,19.444
49999,241.541,69.655,19.485
50033,241.545,70.034,19.501
50075,241.589,70.387,19.468
50146,241.61,70.694,19.45
50167,241.697,71.126,19.394
50197,241.677,71.27,19.455
50233,241.321,70.072,19.358
50273,241.052,68.056,19.388
50307,241.024,66.896,19.461
50339,240.968,66.322,19.582
50372,240.948,66.105,19.59
50414,241.037,66.163,19.517
50460,241.077,66.294,19.538
50487,241.076,66.384,19.529
50515,241.036,66.332,19.493
50565,241.021,66.271,19.536
50600,241.09,66.378,19.563
50634,241.159,66.617,19.576
50667,241.193,66.91,19.509
50701,241.189,67.206,19.532
50741,241.227,67.565,19.485
50784,241.291,67.944,19.46
50817,241.325,68.327,19.417
50874,241.362,68.777,19.388
50894,241.408,69.159,19.386
50926,241.411,69.487,19.393
50967,241.463,69.899,19.393
51021,241.516,70.291,19.281
51047,241.511,70.639,19.268
51087,241.317,70.227,19.298
51142,241.028,68.219,19.4
51186,240.835,65.58,19.594
51249,240.85,65.415,19.598
51266,240.877,65.4,19.646
51300,240.917,65.453,19.533
51351,240.896,65.57,19.558
51377,240.879,65.368,19.5
51419,240.831,65.178,19.455
51453,240.789,65.076,19.571
51497,240.808,65.213,19.559
51535,240.902,65.547,19.649
51567,241.057,66.003,19.746
51602,241.065,66.366,19.461
51643,241.153,66.755,19.559
51688,241.193,67.232,19.633
51712,241.28,67.63,19.648
51753,241.292,67.927,19.673
51787,241.309,68.161,19.636
51820,241.321,68.552,19.536
51870,241.395,68.951,19.589
51890,241.25,68.903,19.539
51937,241.044,67.65,19.604
51969,240.598,65.394,19.519
52003,240.473,64.058,19.573
52064,240.46,63.683,19.757
52082,240.543,63.76,19.754
52120,240.636,63.814,19.69
52173,240.599,64.036,19.622
52188,240.643,64.273,19.528
52228,240.635,64.309,19.528
52272,240.645,64.316,19.601
52305,240.672,64.426,19.616
52339,240.72,64.705,19.544
52386,240.796,65.137,19.577
52421,240.898,65.65,19.517
52455,240.967,66.146,19.477
52489,240.996,66.502,19.509
52535,241.058,66.914,19.536
52571,241.104,67.307,19.401
52604,241.162,67.774,19.362
52638,241.228,68.293,19.479
52688,241.251,68.513,19.504
52722,240.85,67.064,19.503
52755,240.512,64.822,19.521
52789,240.297,63.471,19.611
52822,240.309,63.143,19.633
52863,240.424,63.312,19.772
52905,240.472,63.562,19.765
52938,240.544,63.746,19.659
52989,240.567,63.933,19.615
53023,240.55,63.863,19.635
53107,240.578,63.908,19.68
53148,240.528,64.129,19.592
53159,240.557,64.424,19.57
53196,240.641,64.766,19.615
53200,240.69,65.158,19.617
53239,240.736,65.543,19.609
53271,240.858,65.988,19.676
53322,240.861,66.342,19.609
53356,240.921,66.702,19.615
53388,240.965,67.08,19.579
53421,240.804,66.585,19.571
53454,240.25,64.202,19.557
53505,240.022,61.839,19.602
53539,239.923,60.732,19.66
53572,239.893,60.399,19.644
53604,239.997,60.302,19.746
53656,240.067,60.531,19.709
53690,240.083,60.616,19.681
53724,240.018,60.468,19.628
53757,239.91,60.228,19.5
53789,239.911,60.234,19.513
53839,239.943,60.428,19.562
53874,240.013,60.82,19.571
53906,240.095,61.369,19.508
53939,240.186,61.939,19.561
53989,240.241,62.495,19.545
54022,240.312,63.03,19.577
54059,240.406,63.531,19.538
54100,240.52,64.121,19.604
54140,240.477,64.425,19.489
54172,240.141,63.138,19.49
54222,239.723,60.253,19.597
54240,239.407,58.19,19.663
54291,239.325,57.396,19.8
54323,239.237,57.131,19.762
54358,239.345,56.965,19.73
54390,239.377,57.195,19.684
54424,239.435,57.29,19.568
54474,239.418,57.205,19.572
54508,239.393,57.119,19.586
54541,239.387,57.137,19.607
54575,239.39,57.318,19.601
54622,239.466,57.731,19.635
54659,239.592,58.247,19.571
54694,239.669,58.732,19.566
54726,239.772,59.157,19.505
54761,239.899,59.721,19.449
54811,240.005,60.307,19.497
54844,240.159,60.936,19.533
54877,240.179,61.344,19.506
54911,239.702,59.669,19.465
54951,239.219,56.859,19.521
54995,239.171,55.182,19.543
55027,239.065,54.647,19.602
55067,239.086,54.507,19.585
55111,239.228,54.478,19.481
55154,239.163,54.619,19.425
55173,239.224,54.773,19.539
55226,239.239,54.768,19.447
55285,239.185,54.682,19.418
55304,239.215,54.876,19.341
55336,239.296,55.259,19.392
55371,239.316,55.665,19.387
55406,239.343,56.229,19.351
55439,239.454,56.828,19.366
55482,239.489,57.334,19.359
55514,239.633,57.898,19.4
55569,239.626,58.329,19.467
55582,239.753,58.816,19.442
55614,239.773,59.237,19.36
55662,239.759,59.33,19.356
55696,239.322,57.421,19.369
55729,239.067,54.606,19.407
55764,238.848,53.152,19.488
55803,238.781,52.648,19.413
55846,238.844,52.474,19.536
55880,238.865,52.478,19.519
55913,238.924,52.567,19.475
55963,238.944,52.711,19.473
55997,238.895,52.634,19.474
56038,238.878,52.619,19.46
56067,238.945,52.865,19.5
56104,239.006,53.198,19.484
56145,239.087,53.636,19.473
56197,239.194,54.164,19.482
56212,239.333,54.738,19.538
56264,239.397,55.204,19.597
56296,239.498,55.779,19.493
56332,239.507,56.155,19.521
56365,239.457,56.563,19.51
56405,239.552,57.113,19.515
56447,239.597,57.718,19.456
56480,239.536,57.88,19.428
56513,239.188,55.866,19.456
56547,238.836,53.177,19.445
56597,238.627,51.738,19.489
56631,238.605,51.303,19.57
56664,238.649,51.175,19.684
56698,238.656,51.239,19.657
56747,238.769,51.502,19.452
56782,238.771,51.681,19.501
56814,238.779,51.736,19.334
56848,238.805,51.868,19.368
56882,238.833,52.142,19.413
56932,239.014,52.69,19.441
56965,239.1,53.216,19.513
57002,239.198,53.72,19.437
57050,239.294,54.253,19.497
57074,239.365,54.659,19.477
57115,239.392,55.135,19.445
57150,239.478,55.638,19.471
57183,239.507,56.151,19.465
57231,239.546,56.699,19.433
57260,239.613,57.22,19.485
57303,239.67,57.763,19.426
57332,239.512,57.198,19.485
57366,239.124,54.448,19.439
57416,238.748,52.275,19.528
57449,238.651,51.304,19.527
57483,238.657,51.112,19.53
57517,238.653,50.98,19.558
57550,238.806,51.107,19.484
57600,238.764,51.155,19.441
57633,238.684,50.978,19.374
57667,238.679,50.857,19.384
57701,238.686,50.996,19.396
57746,238.758,51.399,19.407
57783,238.818,51.872,19.34
57816,238.904,52.438,19.419
57850,239.068,53.04,19.418
57900,239.172,53.562,19.415
57934,239.366,54.134,19.415
57968,239.422,54.652,19.423
58001,239.474,55.135,19.391
58045,239.533,55.631,19.361
58085,239.576,56.069,19.452
58119,239.629,56.563,19.446
58152,239.667,57.179,19.422
58185,239.592,57.185,19.391
58219,239.214,54.793,19.406
58285,238.773,52.025,19.376
58311,238.699,50.62,19.484
58335,238.652,50.106,19.458
58368,238.607,49.769,19.392
58419,238.606,49.801,19.337
58452,238.694,49.929,19.293
58485,238.707,50.124,19.276
58519,238.779,50.26,19.34
58569,238.776,50.345,19.338
58603,238.804,50.648,19.384
58636,238.943,51.241,19.423
58669,239.036,51.862,19.406
58719,239.114,52.436,19.499
58753,239.185,52.921,19.498
58800,239.315,53.44,19.515
58820,239.41,54.047,19.552
58856,239.521,54.622,19.512
58895,239.572,55.135,19.505
58938,239.628,55.635,19.497
58971,239.729,56.201,19.507
59023,239.771,56.826,19.443
59052,239.812,57.38,19.471
59088,239.52,56.336,19.465
59121,238.987,53.382,19.428
59154,238.674,50.99,19.418
59188,238.559,50.048,19.489
59238,238.602,49.769,19.551
59272,238.586,49.447,19.497
59325,238.681,49.611,19.539
59354,238.723,49.775,19.45
59386,238.733,49.976,19.472
59419,238.761,50.131,19.388
59453,238.774,50.309,19.45
59487,238.813,50.708,19.455
59530,238.93,51.333,19.443
59571,239.032,51.999,19.499
59604,239.131,52.65,19.489
59638,239.231,53.246,19.573
59687,239.379,53.876,19.553
59721,239.505,54.515,19.543
59754,239.659,55.142,19.568
59787,239.634,55.643,19.469
59820,239.699,56.176,19.485
59871,239.773,56.798,19.591
59904,239.871,57.458,19.592
59938,239.885,58.077,19.585
59971,239.597,57.043,19.597
60022,239.222,54.236,19.527
60050,238.912,52.224,19.547
60088,238.812,51.402,19.637
60122,238.779,51.118,19.649
60172,238.843,50.997,19.624
60206,238.933,51.31,19.661
60240,238.902,51.463,19.504
60272,238.913,51.604,19.49
60324,238.949,51.653,19.469
60348,238.991,51.891,19.456
60386,239.08,52.396,19.518
60422,239.182,52.921,19.495
60467,239.349,53.523,19.592
60508,239.439,54.126,19.57
60541,239.549,54.686,19.47
60575,239.635,55.212,19.537
60608,239.651,55.768,19.507
60641,239.735,56.269,19.517
60691,239.795,56.789,19.618
60726,239.859,57.381,19.68
60759,239.821,57.94,19.487
60792,239.768,58.11,19.525
60827,239.391,55.992,19.474
60876,239.009,53.397,19.512
60909,238.802,52.017,19.598
60943,238.791,51.521,19.663
60976,238.873,51.485,19.636
61021,238.882,51.598,19.671
61063,239.01,51.869,19.552
61092,239.037,52.123,19.607
61127,239.013,52.126,19.575
61176,238.989,52.142,19.605
61210,239.059,52.424,19.637
61243,239.124,52.864,19.661
61277,239.187,53.333,19.578
61328,239.293,53.844,19.543
61358,239.439,54.441,19.623
61398,239.496,54.979,19.598
61427,239.52,55.493,19.492
61461,239.608,55.98,19.511
61510,239.603,56.519,19.583
61543,239.636,57.021,19.553
61577,239.665,57.453,19.492
61611,239.742,57.993,19.471
61651,239.675,58.053,19.493
61694,239.274,55.7,19.485
61728,238.873,53.161,19.635
61761,238.671,51.856,19.614
61795,238.614,51.43,19.607
61835,238.594,51.367,19.581
61878,238.762,51.423,19.444
61912,238.832,51.79,19.485
61945,238.903,52.148,19.528
61996,238.952,52.402,19.518
62038,238.911,52.595,19.44
62068,239.02,53.015,19.449
62111,239.228,53.725,19.54
62146,239.462,54.608,19.549
62166,239.443,55.162,19.558
62212,239.52,55.759,19.589
62246,239.585,56.423,19.519
62280,239.658,57.007,19.554
62329,239.686,57.543,19.573
62397,239.757,58.156,19.552
62412,239.873,58.782,19.542
62441,240.046,59.444,19.612
62492,240.212,60.161,19.531
62523,240.071,60.063,19.514
62558,239.361,57.393,19.578
62586,239.035,54.584,19.497
62636,238.906,53.375,19.688
62680,238.83,52.992,19.644
62701,238.822,52.814,19.62
62729,238.841,52.852,19.604
62763,238.939,53.056,19.567
62805,238.944,53.179,19.528
62846,238.966,53.302,19.596
62880,239.107,53.581,19.637
62914,239.132,53.908,19.643
62955,239.324,54.479,19.648
62996,239.419,55.018,19.683
63036,239.557,55.674,19.72
63082,239.631,56.453,19.756
63121,239.702,57.081,19.731
63147,239.721,57.658,19.725
63181,239.809,58.253,19.656
63232,239.94,58.856,19.564
63269,240.04,59.44,19.708
63298,240.089,60.004,19.598
63332,239.944,59.857,19.589
63364,239.264,57.318,19.495
63403,238.858,54.18,19.522
63439,238.596,52.64,19.555
63479,238.492,52.039,19.541
63514,238.501,51.779,19.592
63548,238.505,51.823,19.555
63581,238.709,52.173,19.603
63631,238.773,52.439,19.582
63665,238.72,52.476,19.513
63698,238.743,52.556,19.513
63731,238.834,52.875,19.586
63774,238.972,53.404,19.622
63815,239.13,54.003,19.629
63851,239.226,54.554,19.548
63884,239.258,55.024,19.591
63925,239.341,55.58,19.566
63966,239.446,56.203,19.596
64011,239.446,56.74,19.576
64038,239.494,57.256,19.542
64074,239.655,57.95,19.599
64117,239.793,58.721,19.661
64151,239.818,59.072,19.588
64184,239.274,57.531,19.466
64218,238.871,54.555,19.472
64258,238.488,52.623,19.442
64300,238.481,52.057,19.529
64334,238.544,51.996,19.572
64368,238.539,52.045,19.549
64424,238.713,52.378,19.536
64450,238.843,52.767,19.527
64486,238.897,52.894,19.467
64533,238.938,53.006,19.556
64552,238.949,53.334,19.528
64592,239.064,53.772,19.521
64635,239.238,54.373,19.494
64668,239.309,55.011,19.46
64702,239.385,55.532,19.519
64753,239.437,55.99,19.552
64785,239.424,56.432,19.518
64819,239.463,56.864,19.517
64853,239.523,57.391,19.543
64886,239.612,57.996,19.529
64936,239.579,58.199,19.499
64968,239.197,56.614,19.495
65003,238.902,54.086,19.558
65046,238.621,52.534,19.527
65085,238.586,52.168,19.584
65118,238.633,52.273,19.656
65151,238.71,52.388,19.54
65185,238.8,52.745,19.619
65222,238.81,52.881,19.511
65269,238.825,52.905,19.562
65303,238.885,53.151,19.622
65336,239.02,53.505,19.657
65371,239.009,53.889,19.552
65436,239.202,54.508,19.612
65452,239.368,55.194,19.599
65487,239.362,55.729,19.6
65521,239.47,56.379,19.611
65572,239.547,56.988,19.555
65613,239.625,57.712,19.607
65633,239.843,58.472,19.679
65672,239.894,58.967,19.622
65705,239.655,58.379,19.604
65753,239.166,55.587,19.704
65788,238.753,53.113,19.666
65821,238.572,52.053,19.725
65871,238.567,51.782,19.71
65904,238.597,51.7,19.641
65937,238.653,51.893,19.684
65969,238.721,52.089,19.558
66005,238.709,52.2,19.564
66040,238.701,52.263,19.453
66090,238.796,52.533,19.48
66121,238.949,52.97,19.635
66155,239.099,53.519,19.695
66189,239.258,54.284,19.525
66239,239.362,54.878,19.622
66272,239.391,55.439,19.58
66307,239.522,56.101,19.631
66339,239.646,56.81,19.703
66380,239.717,57.326,19.701
66422,239.672,57.719,19.594
66469,239.752,58.246,19.57
66508,239.494,57.812,19.592
66540,238.991,54.919,19.594
66573,238.501,52.195,19.552
66607,238.291,50.699,19.511
66640,238.271,50.193,19.573
66690,238.188,49.887,19.583
66723,238.244,49.741,19.489
66756,238.236,49.858,19.496
66790,238.271,49.855,19.425
66823,238.219,49.72,19.397
66872,238.278,49.834,19.383
66907,238.322,50.097,19.432
66941,238.368,50.553,19.504
66974,238.447,51.072,19.556
67043,238.563,51.606,19.461
67062,238.657,52.079,19.422
67090,238.77,52.578,19.469
67136,238.808,52.962,19.55
67162,238.836,53.3,19.42
67194,238.962,53.796,19.456
67241,239.071,54.409,19.467
67275,239.104,54.858,19.46
67309,238.861,54.113,19.503
67342,238.371,51.422,19.477
67392,238.123,49.343,19.485
67426,238.06,48.485,19.439
67497,238.014,48.254,19.521
67511,237.94,48.106,19.568
67547,238.154,48.23,19.493
67583,238.195,48.499,19.554
67619,238.145,48.577,19.514
67672,238.171,48.656,19.515
67702,238.222,48.883,19.434
67730,238.382,49.392,19.48
67763,238.396,49.844,19.441
67792,238.485,50.447,19.503
67827,238.576,51.113,19.536
67867,238.713,51.766,19.602
67909,238.716,52.195,19.507
67943,238.841,52.691,19.568
67976,238.989,53.292,19.609
68025,239.071,53.785,19.576
68059,239.181,54.265,19.625
68093,239.286,54.829,19.632
68128,239.33,55.386,19.613
68161,239.123,54.591,19.659
68211,238.559,52.005,19.598
68243,238.325,49.971,19.559
68278,238.25,49.201,19.692
68312,238.242,49.02,19.68
68352,238.327,48.972,19.615
68394,238.392,49.249,19.638
68426,238.449,49.432,19.545
68496,238.505,49.538,19.6
68508,238.412,49.433,19.509
68536,238.455,49.571,19.556
68579,238.47,49.856,19.545
68611,238.525,50.273,19.52
68653,238.591,50.79,19.625
68696,238.647,51.233,19.626
68727,238.777,51.737,19.709
68761,238.814,52.098,19.663
68795,238.849,52.397,19.601
68844,238.886,52.718,19.64
68880,239.015,53.215,19.613
68913,239.16,53.772,19.624
68945,239.115,53.866,19.683
68986,238.51,51.829,19.623
69022,238.18,49.317,19.583
69061,238.007,47.976,19.515
69094,237.96,47.54,19.607
69145,238.039,47.577,19.636
69178,238.176,47.819,19.535
69227,238.23,48.155,19.559
69254,238.256,48.291,19.597
69279,238.172,48.237,19.544
69327,238.202,48.295,19.511
69361,238.278,48.595,19.559
69396,238.484,49.19,19.587
69429,238.523,49.702,19.624
69479,238.532,50.168,19.569
69527,238.628,50.697,19.604
69552,238.679,51.324,19.604
69581,238.778,51.8,19.627
69615,238.895,52.306,19.632
69664,238.964,52.809,19.602
69698,239.058,53.38,19.67
69731,239.13,53.862,19.692
69763,238.78,52.828,19.559
69814,238.292,50.055,19.521
69849,238.0,48.091,19.47
69883,237.867,47.32,19.446
69914,237.807,47.088,19.496
69950,237.832,47.092,19.464
69997,237.958,47.359,19.377
70037,238.073,47.694,19.421
70064,238.112,47.795,19.43
70113,238.026,47.763,19.409
70147,238.115,48.037,19.501
70180,238.219,48.489,19.515
70214,238.349,49.093,19.43
70263,238.521,49.775,19.581
70283,238.565,50.287,19.522
70321,238.639,50.894,19.565
70366,238.831,51.609,19.654
70400,238.832,52.088,19.59
70432,238.983,52.677,19.762
70483,239.111,53.225,19.779
70528,239.27,53.905,19.762
70550,239.33,54.383,19.729
70584,238.725,52.864,19.61
70634,238.262,50.043,19.546
70667,238.062,48.239,19.572
70700,237.93,47.421,19.524
70733,237.838,47.086,19.563
70767,237.888,47.062,19.592
70817,237.994,47.284,19.511
70852,238.028,47.528,19.517
70884,238.088,47.637,19.508
70925,238.082,47.694,19.485
70967,238.21,48.011,19.573
71010,238.307,48.411,19.541
71038,238.387,48.964,19.53
71075,238.498,49.559,19.517
71116,238.577,50.08,19.597
71150,238.644,50.665,19.622
71183,238.718,51.272,19.637
71216,238.828,51.906,19.658
71250,239.052,52.578,19.721
71299,239.12,53.118,19.726
71335,239.209,53.607,19.779
71369,239.333,54.191,19.771
71401,239.398,54.842,19.736
71452,239.206,54.519,19.734
71485,238.522,51.935,19.619
71521,238.268,49.488,19.526
71560,238.109,48.356,19.656
71600,238.154,48.092,19.642
71633,238.109,47.904,19.655
71666,238.041,47.846,19.645
71700,238.017,47.77,19.476
71743,237.988,47.635,19.471
71783,237.908,47.463,19.533
71832,237.962,47.569,19.575
71860,238.055,47.944,19.515
71885,238.157,48.403,19.56
71935,238.313,48.995,19.568
71968,238.465,49.62,19.631
72018,238.544,50.248,19.608
72041,238.716,50.944,19.724
72087,238.687,51.401,19.726
72121,238.791,51.964,19.705
72154,238.965,52.653,19.807
72187,239.059,53.176,19.813
72239,239.256,53.799,19.875
72271,239.518,54.61,19.937
72304,239.612,55.296,19.924
72341,239.253,54.361,19.925
72379,238.639,51.654,19.864
72412,238.481,49.846,19.872
72454,238.492,49.445,20.019
72487,238.485,49.494,19.996
72521,238.651,49.775,19.937
72566,238.73,50.228,19.979
72604,238.789,50.532,19.972
72639,238.815,50.727,19.955
72671,238.85,50.849,19.957
72723,238.876,51.118,19.961
72746,238.88,51.609,19.936
72789,238.987,52.218,19.954
72822,239.099,52.759,19.998
72874,239.231,53.344,20.002
72892,239.301,53.932,20.059
72930,239.438,54.425,20.085
72973,239.563,54.98,20.085
73016,239.645,55.523,20.087
73055,239.672,55.956,20.177
73088,239.849,56.567,20.275
73122,239.902,57.109,20.197
73156,239.678,56.733,20.172
73188,239.071,54.275,19.997
73238,238.529,51.749,19.96
73271,238.402,50.68,20.0
73305,238.417,50.543,19.989
73340,238.521,50.595,20.017
73391,238.573,50.934,19.995
73425,238.673,51.236,20.027
73456,238.684,51.35,19.999
73491,238.66,51.377,19.994
73524,238.712,51.57,20.06
73610,238.75,51.961,19.994
73626,238.805,52.452,20.005
73649,239.032,53.165,20.06
73697,239.205,53.856,20.108
73733,239.264,54.389,20.046
73770,239.46,55.05,20.126
73803,239.516,55.598,20.041
73836,239.58,56.146,20.037
73868,239.598,56.641,20.113
73916,239.665,57.157,20.152
73934,239.697,57.812,20.052
73975,239.612,57.745,20.001
74016,238.978,55.068,19.958
74059,238.524,52.51,19.956
74091,238.298,51.204,19.939
74126,238.233,50.71,19.928
74158,238.312,50.536,19.981
74192,238.324,50.608,20.011
74242,238.407,50.781,19.922
74276,238.425,50.868,19.918
74311,238.375,50.817,19.937
74344,238.399,50.853,19.866
74392,238.51,51.108,19.92
74444,238.599,51.607,20.004
74458,238.74,52.19,19.98
74494,238.81,52.701,19.954
74544,238.901,53.195,19.944
74577,238.984,53.625,19.969
74622,239.203,54.267,20.022
74660,239.281,54.738,20.015
74693,239.318,55.108,20.019
74726,239.423,55.645,20.053
74759,239.562,56.281,20.149
74793,239.472,56.523,20.107
74826,238.959,54.742,19.902
74877,238.335,51.877,19.835
74911,238.102,50.194,19.862
74944,238.054,49.641,19.836
74982,238.116,49.501,19.843
75016,238.138,49.516,19.899
75060,238.228,49.656,19.851
75093,238.327,49.965,19.869
75127,238.288,49.985,19.735
75161,238.288,50.039,19.756
75210,238.326,50.206,19.779
75244,238.365,50.659,19.794
75278,238.569,51.405,19.863
75311,238.643,51.996,19.857
75361,238.779,52.639,19.877
75394,238.852,53.167,19.833
75429,238.957,53.674,19.875
75479,239.084,54.17,19.871
75499,239.225,54.878,19.954
75537,239.357,55.439,20.002
75579,239.414,56.045,19.95
75621,239.468,56.561,19.99
75662,239.131,55.772,19.911
75695,238.506,53.052,19.866
75729,238.123,50.976,19.829
75764,238.056,50.192,19.769
75797,238.164,50.138,19.818
75846,238.192,50.223,19.901
75880,238.279,50.404,19.74
75913,238.372,50.808,19.802
75946,238.48,51.089,19.86
76002,238.496,51.251,19.889
76027,238.518,51.506,19.849
76061,238.64,51.98,19.861
76096,238.803,52.481,19.988
76147,238.908,53.049,20.026
76178,239.051,53.64,19.989
76212,239.169,54.102,19.976
76247,239.279,54.63,20.049
76280,239.373,55.098,20.117
76331,239.461,55.545,20.112
76364,239.518,56.049,20.042
76397,239.51,56.38,20.117
76431,239.109,55.185,19.996
76464,238.448,52.581,19.807
76514,238.177,50.81,19.769
76548,238.07,50.276,19.807
76581,238.085,50.266,19.872
76629,238.261,50.464,19.725
76655,238.372,50.92,19.838
76697,238.393,51.121,19.828
76731,238.419,51.257,19.778
76764,238.428,51.378,19.795
76814,238.515,51.723,19.812
76848,238.641,52.298,19.747
76882,238.803,52.895,19.826
76914,238.951,53.503,19.862
76965,239.11,54.115,19.849
76995,239.287,54.815,19.888
77042,239.431,55.399,19.968
77065,239.452,55.874,19.882
77100,239.592,56.436,19.99
77141,239.593,57.009,19.915
77183,239.304,56.279,19.888
77216,238.602,53.364,19.868
77250,238.155,50.914,19.762
77283,238.024,49.87,19.737
77333,238.036,49.591,19.786
77367,238.117,49.398,19.777
77400,238.127,49.507,19.787
77433,238.241,49.701,19.792
77482,238.258,49.933,19.793
77511,238.249,49.97,19.714
77558,238.228,50.12,19.775
77582,238.294,50.587,19.714
77632,238.43,51.216,19.757
77661,238.56,51.893,19.828
77702,238.721,52.561,19.782
77736,238.899,53.202,19.816
77767,239.04,53.815,19.864
77818,239.152,54.406,19.816
77852,239.286,55.012,19.81
77885,239.387,55.676,19.917
77919,239.362,55.977,19.857
77963,238.859,54.346,19.819
78003,238.229,51.504,19.809
78034,238.024,49.826,19.793
78069,237.897,49.208,19.765
78103,237.929,49.024,19.746
78152,237.976,49.06,19.812
78186,238.024,49.144,19.832
78219,238.067,49.418,19.787
78253,238.105,49.639,19.723
78294,238.138,49.806,19.741
78336,238.241,50.243,19.644
78369,238.356,50.808,19.726
78403,238.515,51.541,19.864
78454,238.724,52.289,19.928
78487,238.847,52.932,19.86
78520,239.018,53.55,19.965
78572,239.088,54.103,19.998
78594,239.228,54.712,20.024
78635,239.339,55.333,19.98
78702,239.471,55.995,19.988
78717,239.536,56.553,20.083
78746,239.095,55.335,19.922
78796,238.451,52.638,19.864
78833,238.165,50.711,19.859
78867,238.02,50.029,19.841
78901,238.022,49.933,19.887
78930,238.176,49.947,19.831
78973,238.27,50.346,19.882
79025,238.387,50.848,19.963
79040,238.512,51.266,19.974
79083,238.588,51.597,19.958
79120,238.623,51.994,19.852
79153,238.82,52.632,19.92
79187,239.034,53.32,19.984
79219,239.212,54.109,20.004
79270,239.419,54.918,20.059
79304,239.547,55.637,20.071
79337,239.72,56.377,20.116
79370,239.786,57.055,20.136
79412,239.909,57.73,20.18
79454,239.971,58.276,20.218
79487,239.671,57.572,20.13
79521,239.124,55.184,20.101
79554,238.866,53.328,20.073
79605,238.728,52.757,20.027
79638,238.792,52.851,20.069
79688,238.987,53.055,20.095
79718,239.071,53.504,20.075
79756,239.083,53.708,20.051
79789,239.056,53.698,20.02
79824,239.051,53.693,20.07
79857,239.113,53.893,20.06
79890,239.182,54.272,20.048
79940,239.307,54.884,20.098
79978,239.501,55.54,20.106
80013,239.598,56.189,20.147
80041,239.646,56.774,20.099
80081,239.755,57.327,20.155
80141,239.894,57.923,20.236
80156,240.004,58.539,20.152
80190,240.037,59.123,20.054
80227,239.906,59.114,20.056
80274,239.183,56.641,20.024
80307,238.718,53.726,19.929
80340,238.423,52.222,20.007
80374,238.359,51.739,19.956
80424,238.423,51.519,20.054
80457,238.425,51.632,20.031
80491,238.549,51.914,19.85
80524,238.62,52.191,19.893
80566,238.614,52.295,19.814
80608,238.611,52.48,19.84
80659,238.799,52.972,19.945
80676,238.979,53.627,19.976
80728,239.153,54.34,20.02
80749,239.266,55.026,20.047
80791,239.406,55.753,20.103
80825,239.56,56.401,20.165
80858,239.623,57.011,20.229
80908,239.713,57.622,20.203
80941,239.818,58.34,20.094
80986,240.017,59.061,20.101
81023,239.912,59.277,20.126
81056,239.219,57.085,20.05
81090,238.751,54.308,20.031
81125,238.518,52.767,19.968
81158,238.46,52.368,20.035
81208,238.51,52.436,20.024
81242,238.642,52.589,19.993
81275,238.767,53.032,19.959
81308,238.868,53.347,19.792
81358,238.863,53.466,19.785
81392,238.886,53.626,19.868
81425,238.966,53.973,19.982
81459,239.094,54.547,20.021
81509,239.233,55.163,20.074
81542,239.287,55.807,19.962
81576,239.406,56.467,19.922
81608,239.479,57.095,20.01
81643,239.564,57.621,20.0
81692,239.646,58.208,19.825
81731,239.788,58.755,19.85
81759,239.906,59.259,20.025
81792,240.072,59.867,20.053
81828,239.925,59.776,19.998
81876,239.151,57.31,19.977
81910,238.803,54.765,19.98
81945,238.685,53.663,19.988
81994,238.63,53.504,19.999
82027,238.674,53.665,19.986
82062,238.848,53.902,19.94
82094,238.896,54.231,19.913
82129,238.861,54.285,19.872
82163,238.771,54.06,19.84
