time,R,G,B
0,238.124,0.0,0.0
34,238.36,0.0,0.0
67,238.671,0.0,0.0
85,238.958,0.0,0.0
134,239.155,0.0,0.0
152,239.268,0.0,0.0
185,239.303,0.0,0.0
219,238.308,0.0,0.0
253,236.74,0.0,0.0
286,236.472,0.0,0.0
319,236.555,0.0,0.0
357,236.768,0.0,0.0
387,237.076,0.0,0.0
420,237.483,0.0,0.0
455,237.795,0.0,0.0
505,237.75,0.0,0.0
523,237.489,0.0,0.0
556,237.406,0.0,0.0
589,237.47,0.0,0.0
622,237.666,0.0,0.0
656,237.965,0.0,0.0
690,238.241,0.0,0.0
723,238.564,0.0,0.0
773,238.625,0.0,0.0
790,238.611,0.0,0.0
824,238.565,0.0,0.0
858,238.541,0.0,0.0
894,238.514,0.0,0.0
925,237.749,0.0,0.0
960,236.635,0.0,0.0
993,236.254,0.0,0.0
1027,236.269,0.0,0.0
1061,236.355,0.0,0.0
1094,236.584,0.0,0.0
1127,236.947,0.0,0.0
1161,237.251,0.0,0.0
1195,237.341,0.0,0.0
1228,237.232,0.0,0.0
1256,237.149,0.0,0.0
1296,237.21,0.0,0.0
1329,237.321,0.0,0.0
1362,237.58,0.0,0.0
1390,237.838,0.0,0.0
1425,238.107,0.0,0.0
1464,238.321,0.0,0.0
1497,238.455,0.0,0.0
1546,238.576,0.0,0.0
1554,238.67,0.0,0.0
1599,238.792,0.0,0.0
1631,238.792,0.0,0.0
1665,237.824,0.0,0.0
1701,236.754,0.0,0.0
1729,236.483,0.0,0.0
1761,236.583,0.0,0.0
1802,236.789,0.0,0.0
1823,237.092,0.0,0.0
1851,237.53,0.0,0.0
1885,237.713,0.0,0.0
1919,237.624,0.0,0.0
1953,237.366,0.0,0.0
1986,237.321,0.0,0.0
2037,237.476,0.0,0.0
2052,237.726,0.0,0.0
2087,238.017,0.0,0.0
2120,238.278,0.0,0.0
2154,238.595,0.0,0.0
2188,238.889,0.0,0.0
2222,239.094,0.0,0.0
2253,239.233,0.0,0.0
2316,239.372,0.0,0.0
2322,239.572,0.0,0.0
2358,239.798,0.0,0.0
2390,239.702,0.0,0.0
2423,238.303,0.0,0.0
2459,237.193,0.0,0.0
2509,237.045,0.0,0.0
2519,237.31,0.0,0.0
2560,237.803,0.0,0.0
2591,238.28,0.0,0.0
2627,239.015,0.0,0.0
2667,239.154,0.0,0.0
2701,238.998,0.0,0.0
2724,238.685,0.0,0.0
2783,238.495,0.0,0.0
2796,238.606,0.0,0.0
2824,238.866,0.0,0.0
2864,239.122,0.0,0.0
2906,239.423,0.0,0.0
2924,239.701,0.0,0.0
2972,239.858,0.0,0.0
2991,239.992,0.0,0.0
3036,240.176,0.0,0.0
3090,240.317,0.0,0.0
3094,240.421,0.0,0.0
3134,240.503,0.0,0.0
3169,240.31,0.0,0.0
3189,238.889,0.0,0.0
3262,237.549,0.0,0.0
3301,237.638,0.0,0.0
3336,237.989,0.0,0.0
3367,238.823,0.0,0.0
3401,239.406,0.0,0.0
3435,239.453,0.0,0.0
3460,239.188,0.0,0.0
3506,239.018,0.0,0.0
3534,239.121,0.0,0.0
3573,239.318,0.0,0.0
3588,239.579,0.0,0.0
3623,239.86,0.0,0.0
3662,240.177,0.0,0.0
3711,240.499,0.0,0.0
3730,240.598,0.0,0.0
3760,240.757,0.0,0.0
3790,240.856,0.0,0.0
3822,240.936,0.0,0.0
3860,240.945,0.0,0.0
3892,240.471,0.0,0.0
3940,238.749,0.0,0.0
3959,237.773,0.0,0.0
3993,237.68,0.0,0.0
4026,237.941,0.0,0.0
4073,238.305,0.0,0.0
4085,239.134,0.0,0.0
4123,239.664,0.0,0.0
4156,239.687,0.0,0.0
4190,239.445,0.0,0.0
4227,239.197,0.0,0.0
4253,239.239,0.0,0.0
4310,239.445,0.0,0.0
4327,239.7,0.0,0.0
4360,239.971,0.0,0.0
4396,240.206,0.0,0.0
4428,240.359,0.0,0.0
4452,240.545,0.0,0.0
4498,240.702,0.0,0.0
4528,240.721,0.0,0.0
4552,240.707,0.0,0.0
4588,240.24,0.0,0.0
4635,238.441,0.0,0.0
4655,237.28,0.0,0.0
4704,237.147,0.0,0.0
4731,237.395,0.0,0.0
4762,237.667,0.0,0.0
4801,238.066,0.0,0.0
4833,238.708,0.0,0.0
4856,238.736,0.0,0.0
4901,238.368,0.0,0.0
4933,238.013,0.0,0.0
4967,237.919,0.0,0.0
4984,238.015,0.0,0.0
5038,238.151,0.0,0.0
5058,238.429,0.0,0.0
5088,238.756,0.0,0.0
5121,239.094,0.0,0.0
5172,239.331,0.0,0.0
5192,239.465,0.0,0.0
5220,239.615,0.0,0.0
5255,239.709,0.0,0.0
5293,239.132,0.0,0.0
5324,237.37,0.0,0.0
5364,236.621,0.0,0.0
5387,236.464,0.0,0.0
5426,236.565,0.0,0.0
5472,236.829,0.0,0.0
5502,237.167,0.0,0.0
5521,237.473,0.0,0.0
5556,237.374,0.0,0.0
5587,237.072,0.0,0.0
5627,237.022,0.0,0.0
5655,237.072,0.0,0.0
5691,237.306,0.0,0.0
5724,237.613,0.0,0.0
5776,237.862,0.0,0.0
5801,238.129,0.0,0.0
5860,238.288,0.0,0.0
5876,238.407,0.0,0.0
5914,238.502,0.0,0.0
5952,238.629,0.0,0.0
5981,238.732,0.0,0.0
6010,238.426,0.0,0.0
6044,237.089,0.0,0.0
6091,236.361,0.0,0.0
6100,236.172,0.0,0.0
6128,236.214,0.0,0.0
6163,236.374,0.0,0.0
6185,236.672,0.0,0.0
6229,237.002,0.0,0.0
6267,237.038,0.0,0.0
6288,236.741,0.0,0.0
6329,236.647,0.0,0.0
6363,236.709,0.0,0.0
6387,236.851,0.0,0.0
6432,237.102,0.0,0.0
6454,237.349,0.0,0.0
6491,237.514,0.0,0.0
6531,237.607,0.0,0.0
6556,237.712,0.0,0.0
6603,237.703,0.0,0.0
6627,237.81,0.0,0.0
6664,237.903,0.0,0.0
6702,238.007,0.0,0.0
6722,237.981,0.0,0.0
6758,237.101,0.0,0.0
6802,236.435,0.0,0.0
6824,236.096,0.0,0.0
6867,236.177,0.0,0.0
6891,236.356,0.0,0.0
6936,236.667,0.0,0.0
6966,236.981,0.0,0.0
6991,236.965,0.0,0.0
7017,236.696,0.0,0.0
7059,236.592,0.0,0.0
7090,236.641,0.0,0.0
7128,236.828,0.0,0.0
7173,237.061,0.0,0.0
7193,237.319,0.0,0.0
7222,237.49,0.0,0.0
7260,237.662,0.0,0.0
7291,237.733,0.0,0.0
7329,237.828,0.0,0.0
7371,237.877,0.0,0.0
7387,237.957,0.0,0.0
7423,238.121,0.0,0.0
7455,238.351,0.0,0.0
7491,238.488,0.0,0.0
7522,238.328,0.0,0.0
7574,237.017,0.0,0.0
7589,236.217,0.0,0.0
7624,236.012,0.0,0.0
7656,236.109,0.0,0.0
7694,236.425,0.0,0.0
7726,236.883,0.0,0.0
7752,237.294,0.0,0.0
7792,237.276,0.0,0.0
7827,236.952,0.0,0.0
7850,236.8,0.0,0.0
7896,236.902,0.0,0.0
7927,237.119,0.0,0.0
7962,237.402,0.0,0.0
7984,237.689,0.0,0.0
8017,237.956,0.0,0.0
8072,238.205,0.0,0.0
8095,238.399,0.0,0.0
8132,238.497,0.0,0.0
8154,238.601,0.0,0.0
8200,238.728,0.0,0.0
8220,238.914,0.0,0.0
8262,239.055,0.0,0.0
8294,239.125,0.0,0.0
8336,239.268,0.0,0.0
8354,238.734,0.0,0.0
8406,237.139,0.0,0.0
8418,236.491,0.0,0.0
8470,236.456,0.0,0.0
8489,236.693,0.0,0.0
8536,237.214,0.0,0.0
8555,237.835,0.0,0.0
8591,238.264,0.0,0.0
8624,238.124,0.0,0.0
8667,237.821,0.0,0.0
8690,237.729,0.0,0.0
8737,237.824,0.0,0.0
8758,238.032,0.0,0.0
8803,238.323,0.0,0.0
8825,238.595,0.0,0.0
8869,238.876,0.0,0.0
8884,239.131,0.0,0.0
8920,239.27,0.0,0.0
8969,239.401,0.0,0.0
8984,239.524,0.0,0.0
9036,239.703,0.0,0.0
9052,239.89,0.0,0.0
9092,240.043,0.0,0.0
9120,239.88,0.0,0.0
9158,238.583,0.0,0.0
9226,237.147,0.0,0.0
9247,236.838,0.0,0.0
9262,237.018,0.0,0.0
9287,237.45,0.0,0.0
9366,238.617,0.0,0.0
9396,238.621,0.0,0.0
9432,238.426,0.0,0.0
9451,238.15,0.0,0.0
9493,238.375,0.0,0.0
9531,238.757,0.0,0.0
9587,239.0,0.0,0.0
9599,239.251,0.0,0.0
9623,239.486,0.0,0.0
9660,239.585,0.0,0.0
9693,239.725,0.0,0.0
9726,239.806,0.0,0.0
9767,239.92,0.0,0.0
9793,240.061,0.0,0.0
9828,240.08,0.0,0.0
9860,240.106,0.0,0.0
9897,239.424,0.0,0.0
9923,237.7,0.0,0.0
9960,236.802,0.0,0.0
9997,236.668,0.0,0.0
10026,236.935,0.0,0.0
10060,237.373,0.0,0.0
10099,237.836,0.0,0.0
10119,238.39,0.0,0.0
10147,238.387,0.0,0.0
10187,238.141,0.0,0.0
10231,238.108,0.0,0.0
10262,238.242,0.0,0.0
10288,238.558,0.0,0.0
10334,238.84,0.0,0.0
10355,239.153,0.0,0.0
10389,239.345,0.0,0.0
10435,239.505,0.0,0.0
10466,239.58,0.0,0.0
10489,239.663,0.0,0.0
10526,239.717,0.0,0.0
10558,239.781,0.0,0.0
10601,239.878,0.0,0.0
10617,239.695,0.0,0.0
10654,238.308,0.0,0.0
10691,236.628,0.0,0.0
10746,236.029,0.0,0.0
10761,235.848,0.0,0.0
10813,235.895,0.0,0.0
10831,236.176,0.0,0.0
10868,236.666,0.0,0.0
10897,236.891,0.0,0.0
10931,236.701,0.0,0.0
10964,236.368,0.0,0.0
10998,236.315,0.0,0.0
11031,236.391,0.0,0.0
11094,236.774,0.0,0.0
11099,237.1,0.0,0.0
11133,237.472,0.0,0.0
11154,237.806,0.0,0.0
11188,238.083,0.0,0.0
11221,238.182,0.0,0.0
11255,238.241,0.0,0.0
11287,238.344,0.0,0.0
11323,238.486,0.0,0.0
11372,238.565,0.0,0.0
11384,237.741,0.0,0.0
11415,236.048,0.0,0.0
11462,235.573,0.0,0.0
11484,235.498,0.0,0.0
11515,235.639,0.0,0.0
11566,235.906,0.0,0.0
11582,236.194,0.0,0.0
11616,236.388,0.0,0.0
11663,236.317,0.0,0.0
11707,236.166,0.0,0.0
11726,236.062,0.0,0.0
11762,236.182,0.0,0.0
11783,236.337,0.0,0.0
11827,236.61,0.0,0.0
11864,236.856,0.0,0.0
11885,237.038,0.0,0.0
11933,237.16,0.0,0.0
11952,237.252,0.0,0.0
11987,237.336,0.0,0.0
12030,237.409,0.0,0.0
12068,237.582,0.0,0.0
12087,237.73,0.0,0.0
12133,237.552,0.0,0.0
12164,236.294,0.0,0.0
12188,235.482,0.0,0.0
12239,235.221,0.0,0.0
12251,235.288,0.0,0.0
12307,235.483,0.0,0.0
12324,235.816,0.0,0.0
12356,236.123,0.0,0.0
12405,236.098,0.0,0.0
12423,235.789,0.0,0.0
12454,235.735,0.0,0.0
12491,235.724,0.0,0.0
12540,235.913,0.0,0.0
12568,236.222,0.0,0.0
12595,236.459,0.0,0.0
12619,236.556,0.0,0.0
12656,236.789,0.0,0.0
12705,237.006,0.0,0.0
12735,237.1,0.0,0.0
12752,237.174,0.0,0.0
12789,237.255,0.0,0.0
12839,237.505,0.0,0.0
12864,237.749,0.0,0.0
12889,237.802,0.0,0.0
12922,237.067,0.0,0.0
12956,235.487,0.0,0.0
12989,235.099,0.0,0.0
13021,235.032,0.0,0.0
13060,235.155,0.0,0.0
13084,235.45,0.0,0.0
13124,235.803,0.0,0.0
13154,235.856,0.0,0.0
13190,235.632,0.0,0.0
13226,235.5,0.0,0.0
13258,235.421,0.0,0.0
13283,235.56,0.0,0.0
13329,235.852,0.0,0.0
13350,236.088,0.0,0.0
13386,236.348,0.0,0.0
13426,236.54,0.0,0.0
13464,236.638,0.0,0.0
13483,236.757,0.0,0.0
13516,236.797,0.0,0.0
13562,236.873,0.0,0.0
13599,237.0,0.0,0.0
13617,237.141,0.0,0.0
13666,237.294,0.0,0.0
13687,237.111,0.0,0.0
13732,235.867,0.0,0.0
13753,235.241,0.0,0.0
13809,235.006,0.0,0.0
13840,235.169,0.0,0.0
13864,235.506,0.0,0.0
13906,235.787,0.0,0.0
13924,236.296,0.0,0.0
13967,236.185,0.0,0.0
14001,235.865,0.0,0.0
14042,235.793,0.0,0.0
14066,235.86,0.0,0.0
14105,236.03,0.0,0.0
14132,236.335,0.0,0.0
14166,236.609,0.0,0.0
14190,236.883,0.0,0.0
14222,237.133,0.0,0.0
14253,237.293,0.0,0.0
14287,237.428,0.0,0.0
14316,237.598,0.0,0.0
14357,237.779,0.0,0.0
14385,237.927,0.0,0.0
14422,237.888,0.0,0.0
14450,236.923,0.0,0.0
14488,235.504,0.0,0.0
14523,235.183,0.0,0.0
14557,235.273,0.0,0.0
14589,235.512,0.0,0.0
14621,235.806,0.0,0.0
14655,236.408,0.0,0.0
14688,236.433,0.0,0.0
14725,236.114,0.0,0.0
14759,235.776,0.0,0.0
14787,235.791,0.0,0.0
14825,235.947,0.0,0.0
14857,236.185,0.0,0.0
14887,236.502,0.0,0.0
14914,236.731,0.0,0.0
14969,236.934,0.0,0.0
14996,237.114,0.0,0.0
15023,237.262,0.0,0.0
15059,237.375,0.0,0.0
15089,237.48,0.0,0.0
15114,237.438,0.0,0.0
15165,236.544,0.0,0.0
15193,234.827,0.0,0.0
15227,234.42,0.0,0.0
15263,234.397,0.0,0.0
15295,234.555,0.0,0.0
15327,234.911,0.0,0.0
15358,235.36,0.0,0.0
15383,235.485,0.0,0.0
15432,235.171,0.0,0.0
15451,234.86,0.0,0.0
15497,234.787,0.0,0.0
15517,234.9,0.0,0.0
15563,235.227,0.0,0.0
15594,235.501,0.0,0.0
15631,235.815,0.0,0.0
15662,236.086,0.0,0.0
15687,236.253,0.0,0.0
15718,236.349,0.0,0.0
15753,236.493,0.0,0.0
15787,236.557,0.0,0.0
15831,236.682,0.0,0.0
15854,236.246,0.0,0.0
15903,234.751,0.0,0.0
15921,234.114,0.0,0.0
15952,233.939,0.0,0.0
15992,234.0,0.0,0.0
16023,234.145,0.0,0.0
16055,234.443,0.0,0.0
16090,234.621,0.0,0.0
16117,234.514,0.0,0.0
16154,234.395,0.0,0.0
16192,234.23,0.0,0.0
16247,234.347,0.0,0.0
16259,234.411,0.0,0.0
16283,234.654,0.0,0.0
16319,234.85,0.0,0.0
16358,234.962,0.0,0.0
16386,235.07,0.0,0.0
16421,235.174,0.0,0.0
16452,235.134,0.0,0.0
16485,235.248,0.0,0.0
16526,235.331,0.0,0.0
16564,235.373,0.0,0.0
16590,235.06,0.0,0.0
16624,234.293,0.0,0.0
16656,233.56,0.0,0.0
16689,233.401,0.0,0.0
16714,233.447,0.0,0.0
16763,233.561,0.0,0.0
16781,233.832,0.0,0.0
16815,233.958,0.0,0.0
16876,233.871,0.0,0.0
16891,233.723,0.0,0.0
16923,233.625,0.0,0.0
16958,233.704,0.0,0.0
16981,233.803,0.0,0.0
17027,233.972,0.0,0.0
17050,234.132,0.0,0.0
17094,234.296,0.0,0.0
17117,234.393,0.0,0.0
17152,234.49,0.0,0.0
17195,234.514,0.0,0.0
17230,234.604,0.0,0.0
17260,234.666,0.0,0.0
17287,234.843,0.0,0.0
17330,234.992,0.0,0.0
17356,234.805,0.0,0.0
17398,233.881,0.0,0.0
17418,233.313,0.0,0.0
17453,232.893,0.0,0.0
17488,232.901,0.0,0.0
17530,233.243,0.0,0.0
17553,233.655,0.0,0.0
17606,233.972,0.0,0.0
17618,233.926,0.0,0.0
17667,233.643,0.0,0.0
17699,233.574,0.0,0.0
17721,233.617,0.0,0.0
17767,233.688,0.0,0.0
17790,233.88,0.0,0.0
17833,234.09,0.0,0.0
17855,234.262,0.0,0.0
17884,234.361,0.0,0.0
17923,234.478,0.0,0.0
17967,234.53,0.0,0.0
17983,234.577,0.0,0.0
18019,234.661,0.0,0.0
18054,234.832,0.0,0.0
18083,234.978,0.0,0.0
18124,235.028,0.0,0.0
18155,234.261,0.0,0.0
18190,233.395,0.0,0.0
18226,232.928,0.0,0.0
18253,232.965,0.0,0.0
18284,233.19,0.0,0.0
18319,233.569,0.0,0.0
18352,233.977,0.0,0.0
18388,234.157,0.0,0.0
18422,233.864,0.0,0.0
18456,233.716,0.0,0.0
18483,233.688,0.0,0.0
18520,233.747,0.0,0.0
18545,233.916,0.0,0.0
18596,234.196,0.0,0.0
18614,234.379,0.0,0.0
18656,234.608,0.0,0.0
18695,234.713,0.0,0.0
18717,234.579,0.0,0.0
18759,234.584,0.0,0.0
18790,234.692,0.0,0.0
18815,234.751,0.0,0.0
18862,234.827,0.0,0.0
18897,234.2,0.0,0.0
18945,233.124,0.0,0.0
18980,232.63,0.0,0.0
19017,232.569,0.0,0.0
19029,232.722,0.0,0.0
19071,233.058,0.0,0.0
19089,233.438,0.0,0.0
19137,233.629,0.0,0.0
19162,233.336,0.0,0.0
19204,233.079,0.0,0.0
19217,232.945,0.0,0.0
19265,233.077,0.0,0.0
19295,233.149,0.0,0.0
19315,233.299,0.0,0.0
19361,233.609,0.0,0.0
19398,233.839,0.0,0.0
19432,234.196,0.0,0.0
19486,234.35,0.0,0.0
19520,234.43,0.0,0.0
19550,234.411,0.0,0.0
19588,234.364,0.0,0.0
19638,233.438,0.0,0.0
19656,232.289,0.0,0.0
19700,231.831,0.0,0.0
19729,231.812,0.0,0.0
19756,231.937,0.0,0.0
19786,232.186,0.0,0.0
19820,232.536,0.0,0.0
19857,232.66,0.0,0.0
19902,232.423,0.0,0.0
19918,232.182,0.0,0.0
19952,232.054,0.0,0.0
19989,232.1,0.0,0.0
20017,232.236,0.0,0.0
20076,232.483,0.0,0.0
20086,232.761,0.0,0.0
20118,233.006,0.0,0.0
20171,233.216,0.0,0.0
20180,233.301,0.0,0.0
20213,233.414,0.0,0.0
20257,233.408,0.0,0.0
20285,233.53,0.0,0.0
20328,233.517,0.0,0.0
20354,233.164,0.0,0.0
20387,231.657,0.0,0.0
20422,231.174,0.0,0.0
20455,230.812,0.0,0.0
20489,230.889,0.0,0.0
20523,231.242,0.0,0.0
20548,231.824,0.0,0.0
20589,232.41,0.0,0.0
20626,232.572,0.0,0.0
20648,232.374,0.0,0.0
20694,231.88,0.0,0.0
20733,231.947,0.0,0.0
20761,232.142,0.0,0.0
20781,232.469,0.0,0.0
20814,232.763,0.0,0.0
20853,233.025,0.0,0.0
20894,233.233,0.0,0.0
20916,233.362,0.0,0.0
20960,233.467,0.0,0.0
20983,233.561,0.0,0.0
21020,233.683,0.0,0.0
21063,233.958,0.0,0.0
21084,234.014,0.0,0.0
21112,233.179,0.0,0.0
21162,231.598,0.0,0.0
21185,231.124,0.0,0.0
21220,230.972,0.0,0.0
21252,231.094,0.0,0.0
21287,231.324,0.0,0.0
21330,231.88,0.0,0.0
21353,232.397,0.0,0.0
21385,232.287,0.0,0.0
21421,232.063,0.0,0.0
21451,231.668,0.0,0.0
21488,231.719,0.0,0.0
21517,231.962,0.0,0.0
21555,232.589,0.0,0.0
21587,232.638,0.0,0.0
21623,232.916,0.0,0.0
21654,233.213,0.0,0.0
21681,233.271,0.0,0.0
21718,233.246,0.0,0.0
21767,233.382,0.0,0.0
21783,233.569,0.0,0.0
21819,233.75,0.0,0.0
21850,233.792,0.0,0.0
21886,232.499,0.0,0.0
21919,231.317,0.0,0.0
21954,230.996,0.0,0.0
21986,231.072,0.0,0.0
22017,231.32,0.0,0.0
22053,231.968,0.0,0.0
22088,232.444,0.0,0.0
22119,232.589,0.0,0.0
22144,232.37,0.0,0.0
22193,231.822,0.0,0.0
22229,231.731,0.0,0.0
22257,231.88,0.0,0.0
22293,232.199,0.0,0.0
22313,232.528,0.0,0.0
22352,232.841,0.0,0.0
22383,233.141,0.0,0.0
22426,233.449,0.0,0.0
22463,233.564,0.0,0.0
22488,233.725,0.0,0.0
22513,233.951,0.0,0.0
22556,234.198,0.0,0.0
22605,234.379,0.0,0.0
22614,234.278,0.0,0.0
22647,232.84,0.0,0.0
22684,231.742,0.0,0.0
22726,231.458,0.0,0.0
22759,231.567,0.0,0.0
22795,231.962,0.0,0.0
22816,232.37,0.0,0.0
22856,232.885,0.0,0.0
22887,233.247,0.0,0.0
22930,232.913,0.0,0.0
22963,232.725,0.0,0.0
23003,232.729,0.0,0.0
23025,232.884,0.0,0.0
23057,233.222,0.0,0.0
23090,233.561,0.0,0.0
23124,233.888,0.0,0.0
23156,234.223,0.0,0.0
23199,234.534,0.0,0.0
23231,234.744,0.0,0.0
23261,234.939,0.0,0.0
23281,235.111,0.0,0.0
23321,235.26,0.0,0.0
23348,234.723,0.0,0.0
23378,232.86,0.0,0.0
23433,232.131,0.0,0.0
23467,232.187,0.0,0.0
23483,232.495,0.0,0.0
23522,232.98,0.0,0.0
23552,233.806,0.0,0.0
23585,234.501,0.0,0.0
23621,234.52,0.0,0.0
23649,234.217,0.0,0.0
23683,234.136,0.0,0.0
23720,234.203,0.0,0.0
23753,234.555,0.0,0.0
23788,234.885,0.0,0.0
23820,235.238,0.0,0.0
23845,235.646,0.0,0.0
23889,235.965,0.0,0.0
23918,236.204,0.0,0.0
23955,236.36,0.0,0.0
23980,236.467,0.0,0.0
24023,236.185,0.0,0.0
24070,234.4,0.0,0.0
24089,232.705,0.0,0.0
24111,232.434,0.0,0.0
24160,232.575,0.0,0.0
24179,232.974,0.0,0.0
24223,233.571,0.0,0.0
24258,234.171,0.0,0.0
24292,234.57,0.0,0.0
24325,234.213,0.0,0.0
24355,233.87,0.0,0.0
24391,233.756,0.0,0.0
24424,233.827,0.0,0.0
24459,234.168,0.0,0.0
24484,234.462,0.0,0.0
24511,234.799,0.0,0.0
24553,235.121,0.0,0.0
24599,235.44,0.0,0.0
24625,235.593,0.0,0.0
24658,235.676,0.0,0.0
24683,235.188,0.0,0.0
24720,233.14,0.0,0.0
24762,231.922,0.0,0.0
24784,231.737,0.0,0.0
24829,231.828,0.0,0.0
24863,232.24,0.0,0.0
24897,232.521,0.0,0.0
24913,233.097,0.0,0.0
24950,232.981,0.0,0.0
24982,232.593,0.0,0.0
25035,232.309,0.0,0.0
25067,232.254,0.0,0.0
25103,232.421,0.0,0.0
25134,232.675,0.0,0.0
25153,232.93,0.0,0.0
25178,233.122,0.0,0.0
25219,233.308,0.0,0.0
25251,233.432,0.0,0.0
25283,233.51,0.0,0.0
25322,233.441,0.0,0.0
25348,232.615,0.0,0.0
25382,231.211,0.0,0.0
25416,230.675,0.0,0.0
25450,230.568,0.0,0.0
25485,230.575,0.0,0.0
25520,230.994,0.0,0.0
25543,231.136,0.0,0.0
25577,231.083,0.0,0.0
25619,230.929,0.0,0.0
25654,230.66,0.0,0.0
25685,230.345,0.0,0.0
25716,230.116,0.0,0.0
25752,230.001,0.0,0.0
25787,229.81,0.0,0.0
25810,229.522,0.0,0.0
25856,229.375,0.0,0.0
25888,228.995,0.0,0.0
25923,228.592,0.0,0.0
25953,228.025,0.0,0.0
25991,227.457,0.0,0.0
26014,226.61,0.0,0.0
26059,224.648,0.0,0.0
26086,222.718,0.0,0.0
26126,221.653,0.0,0.0
26147,220.559,0.0,0.0
26192,218.976,0.0,0.0
26224,217.611,0.0,0.0
26257,216.512,0.0,0.0
26292,215.093,0.009,0.0
26324,213.475,0.046,0.0
26356,212.394,0.07,0.0
26396,212.621,0.052,0.0
26426,212.587,0.031,0.0
26449,213.093,0.009,0.0
26494,213.842,0.0,0.0
26517,214.3,0.0,0.0
26565,215.275,0.0,0.0
26584,217.105,0.0,0.0
26614,219.864,0.0,0.0
26647,221.347,0.0,0.0
26684,222.919,0.0,0.0
26731,224.495,0.0,0.0
26751,225.375,0.0,0.0
26785,225.489,0.0,0.0
26819,225.459,0.0,0.0
26867,225.145,0.0,0.0
26889,225.071,0.0,0.0
26929,225.283,0.0,0.0
26961,225.672,0.0,0.0
26992,225.963,0.0,0.0
27029,226.303,0.0,0.0
27067,226.544,0.0,0.0
27092,226.706,0.0,0.0
27136,226.822,0.0,0.0
27159,226.948,0.0,0.0
27192,227.228,0.0,0.0
27242,227.402,0.0,0.0
27267,227.631,0.0,0.0
27278,227.765,0.0,0.0
27327,227.858,0.0,0.0
27358,228.035,0.0,0.0
27384,228.131,0.0,0.0
27420,228.178,0.0,0.0
27452,228.283,0.0,0.0
27483,228.506,0.0,0.0
27522,228.774,0.0,0.0
27551,228.977,0.0,0.0
27578,228.939,0.0,0.0
27612,228.524,0.0,0.0
27656,227.792,0.0,0.0
27689,227.082,0.0,0.0
27722,226.985,0.0,0.0
27757,227.111,0.0,0.0
27790,227.463,0.0,0.0
27817,227.709,0.0,0.0
27874,227.698,0.0,0.0
27878,227.573,0.0,0.0
27923,227.419,0.0,0.0
27959,227.33,0.0,0.0
27979,227.481,0.0,0.0
28027,227.581,0.0,0.0
28065,227.79,0.0,0.0
28089,228.048,0.0,0.0
28125,228.228,0.0,0.0
28156,228.403,0.0,0.0
28181,228.619,0.0,0.0
28225,228.733,0.0,0.0
28266,229.072,0.0,0.0
28297,229.231,0.0,0.0
28316,229.417,0.0,0.0
28349,229.611,0.0,0.0
28385,229.733,0.0,0.0
28426,229.325,0.0,0.0
28444,228.884,0.0,0.0
28483,228.5,0.0,0.0
28517,228.514,0.0,0.0
28548,228.716,0.0,0.0
28599,229.107,0.0,0.0
28616,229.512,0.0,0.0
28649,229.622,0.0,0.0
28685,229.473,0.0,0.0
28717,229.37,0.0,0.0
28746,229.48,0.0,0.0
28780,229.548,0.0,0.0
28832,229.786,0.0,0.0
28848,229.963,0.0,0.0
28880,230.174,0.0,0.0
28917,230.378,0.0,0.0
28951,230.746,0.0,0.0
29000,230.84,0.0,0.0
29015,230.938,0.0,0.0
29048,231.007,0.0,0.0
29080,231.142,0.0,0.0
29114,231.393,0.0,0.0
29150,231.436,0.0,0.0
29183,230.857,0.0,0.0
29217,230.31,0.0,0.0
29247,229.724,0.0,0.0
29283,229.719,0.0,0.0
29314,229.999,0.0,0.0
29361,230.327,0.0,0.0
29376,230.701,0.0,0.0
29412,230.907,0.0,0.0
29455,230.723,0.0,0.0
29478,230.562,0.0,0.0
29521,230.532,0.0,0.0
29555,230.549,0.0,0.0
29587,230.767,0.0,0.0
29619,230.943,0.0,0.0
29656,231.058,0.0,0.0
29687,231.026,0.0,0.0
29725,231.09,0.0,0.0
29757,231.242,0.0,0.0
29789,231.196,0.0,0.0
29824,231.261,0.0,0.0
29859,231.424,0.0,0.0
29881,231.4,0.0,0.0
29926,230.851,0.0,0.0
29957,229.812,0.0,0.0
29981,229.14,0.0,0.0
30026,228.978,0.0,0.0
30048,229.058,0.0,0.0
30093,229.288,0.0,0.0
30114,229.642,0.0,0.0
30164,229.904,0.0,0.0
30181,229.722,0.0,0.0
30213,229.413,0.0,0.0
30259,229.333,0.0,0.0
30284,229.469,0.0,0.0
30317,229.608,0.0,0.0
30350,229.861,0.0,0.0
30397,230.148,0.0,0.0
30417,230.421,0.0,0.0
30464,230.778,0.0,0.0
30486,230.961,0.0,0.0
30514,231.086,0.0,0.0
30551,231.209,0.0,0.0
30583,231.411,0.0,0.0
30614,231.525,0.0,0.0
30666,230.977,0.0,0.0
30688,229.776,0.0,0.0
30715,229.167,0.0,0.0
30763,228.98,0.0,0.0
30796,229.016,0.0,0.0
30821,229.262,0.0,0.0
30848,229.587,0.0,0.0
30901,229.885,0.0,0.0
30916,229.943,0.0,0.0
30955,229.79,0.0,0.0
30987,229.631,0.0,0.0
31023,229.657,0.0,0.0
31060,229.876,0.0,0.0
31095,230.216,0.0,0.0
31119,230.42,0.0,0.0
31164,230.647,0.0,0.0
31197,230.842,0.0,0.0
31219,230.92,0.0,0.0
31278,231.031,0.0,0.0
31285,231.142,0.0,0.0
31321,231.212,0.0,0.0
31350,231.201,0.0,0.0
31375,230.58,0.0,0.0
31422,229.875,0.0,0.0
31460,229.225,0.0,0.0
31489,229.066,0.0,0.0
31517,229.226,0.0,0.0
31554,229.523,0.0,0.0
31586,229.863,0.0,0.0
31622,229.976,0.0,0.0
31644,229.866,0.0,0.0
31685,229.847,0.0,0.0
31715,229.877,0.0,0.0
31756,230.064,0.0,0.0
31779,230.401,0.0,0.0
31823,230.745,0.0,0.0
31846,231.002,0.0,0.0
31890,231.181,0.0,0.0
31913,231.274,0.0,0.0
31963,231.266,0.0,0.0
31992,231.176,0.0,0.0
32023,231.111,0.0,0.0
32070,231.07,0.0,0.0
32085,230.905,0.0,0.0
32132,230.353,0.0,0.0
32156,229.793,0.0,0.0
32182,229.357,0.0,0.0
32217,229.448,0.0,0.0
32260,229.602,0.0,0.0
32283,229.9,0.0,0.0
32332,230.131,0.0,0.0
32350,230.072,0.0,0.0
32380,229.971,0.0,0.0
32413,229.998,0.0,0.0
32447,230.133,0.0,0.0
32480,230.331,0.0,0.0
32527,230.532,0.0,0.0
32543,230.644,0.0,0.0
32602,230.679,0.0,0.0
32613,230.696,0.0,0.0
32648,230.699,0.0,0.0
32681,230.785,0.0,0.0
32713,230.86,0.0,0.0
32747,230.974,0.0,0.0
32784,231.221,0.0,0.0
32814,231.436,0.0,0.0
32894,230.888,0.0,0.0
32905,230.429,0.0,0.0
32919,230.255,0.0,0.0
32951,230.247,0.0,0.0
32972,230.458,0.0,0.0
33006,230.912,0.0,0.0
33038,231.254,0.0,0.0
33074,231.005,0.0,0.0
33106,230.813,0.0,0.0
33139,230.871,0.0,0.0
33173,230.982,0.0,0.0
33206,231.169,0.0,0.0
33242,231.521,0.0,0.0
33286,231.789,0.0,0.0
33309,231.848,0.0,0.0
33341,231.906,0.0,0.0
33376,232.006,0.0,0.0
33406,232.139,0.0,0.0
33443,232.338,0.0,0.0
33481,232.413,0.0,0.0
33514,232.068,0.0,0.0
33548,231.274,0.0,0.0
33570,230.47,0.0,0.0
33612,229.87,0.0,0.0
33642,229.955,0.0,0.0
33677,230.058,0.0,0.0
33751,230.4,0.0,0.0
33806,230.772,0.0,0.0
33812,230.574,0.0,0.0
33849,230.29,0.0,0.0
33872,230.617,0.0,0.0
33911,230.897,0.0,0.0
33940,231.222,0.0,0.0
33980,231.5,0.0,0.0
34020,231.715,0.0,0.0
34052,231.95,0.0,0.0
34079,232.139,0.0,0.0
34119,232.254,0.0,0.0
34148,232.351,0.0,0.0
34183,232.03,0.0,0.0
34219,231.248,0.0,0.0
34246,230.527,0.0,0.0
34272,229.83,0.0,0.0
34302,229.988,0.0,0.0
34347,230.174,0.0,0.0
34372,230.549,0.0,0.0
34416,230.931,0.0,0.0
34440,230.736,0.0,0.0
34474,230.345,0.0,0.0
34503,230.218,0.0,0.0
34540,230.249,0.0,0.0
34570,230.36,0.0,0.0
34603,230.588,0.0,0.0
34634,230.708,0.0,0.0
34669,230.87,0.0,0.0
34700,231.119,0.0,0.0
34732,231.226,0.0,0.0
34776,231.335,0.0,0.0
34799,231.276,0.0,0.0
34832,230.792,0.0,0.0
34866,229.741,0.0,0.0
34900,229.015,0.0,0.0
34933,228.816,0.0,0.0
34966,228.872,0.0,0.0
34999,229.187,0.0,0.0
35033,229.607,0.0,0.0
35066,229.994,0.0,0.0
35099,230.193,0.0,0.0
35135,229.846,0.0,0.0
35166,229.78,0.0,0.0
35201,230.035,0.0,0.0
35232,230.103,0.0,0.0
35273,230.178,0.0,0.0
35304,230.451,0.0,0.0
35335,230.676,0.0,0.0
35369,230.77,0.0,0.0
35402,230.869,0.0,0.0
35436,230.938,0.0,0.0
35471,230.825,0.0,0.0
35502,230.257,0.0,0.0
35538,229.47,0.0,0.0
35570,228.96,0.0,0.0
35604,228.565,0.0,0.0
35637,228.637,0.0,0.0
35680,228.899,0.0,0.0
35704,228.928,0.0,0.0
35735,229.055,0.0,0.0
35770,228.994,0.0,0.0
35800,228.852,0.0,0.0
35839,228.836,0.0,0.0
35878,228.914,0.0,0.0
35906,229.007,0.0,0.0
35939,229.176,0.0,0.0
35979,229.319,0.0,0.0
36006,229.458,0.0,0.0
36037,229.812,0.0,0.0
36070,229.923,0.0,0.0
36104,229.998,0.0,0.0
36151,230.107,0.0,0.0
36172,230.014,0.0,0.0
36204,229.456,0.0,0.0
36239,228.831,0.0,0.0
36276,228.037,0.0,0.0
36316,227.983,0.0,0.0
36339,228.118,0.0,0.0
36367,228.085,0.0,0.0
36406,228.315,0.0,0.0
36443,228.423,0.0,0.0
36475,228.314,0.0,0.0
36503,228.23,0.0,0.0
36545,228.223,0.0,0.0
36586,228.337,0.0,0.0
36609,228.54,0.0,0.0
36637,228.645,0.0,0.0
36673,228.803,0.0,0.0
36706,228.958,0.0,0.0
36742,229.08,0.0,0.0
36775,229.218,0.0,0.0
36803,229.315,0.0,0.0
36844,229.404,0.0,0.0
36881,229.738,0.0,0.0
36904,229.826,0.0,0.0
36940,229.92,0.0,0.0
36971,229.325,0.0,0.0
37006,228.548,0.0,0.0
37041,227.835,0.0,0.0
37077,227.675,0.0,0.0
37102,227.657,0.0,0.0
37139,227.84,0.0,0.0
37175,228.099,0.0,0.0
37209,228.244,0.0,0.0
37239,228.233,0.0,0.0
37275,228.155,0.0,0.0
37308,228.199,0.0,0.0
37337,228.332,0.0,0.0
37378,228.447,0.0,0.0
37408,228.713,0.0,0.0
37442,228.971,0.0,0.0
37474,229.218,0.0,0.0
37508,229.366,0.0,0.0
37538,229.566,0.0,0.0
37575,229.671,0.0,0.0
37611,229.993,0.0,0.0
37637,230.109,0.0,0.0
37669,230.344,0.0,0.0
37702,230.604,0.0,0.0
37741,230.845,0.0,0.0
37769,230.981,0.0,0.0
37803,230.425,0.0,0.0
37836,228.992,0.0,0.0
37868,228.393,0.0,0.0
37905,228.217,0.0,0.0
37939,228.387,0.0,0.0
37973,228.773,0.0,0.0
38012,228.995,0.0,0.0
38038,229.348,0.0,0.0
38073,229.254,0.0,0.0
38104,229.064,0.0,0.0
38137,229.166,0.0,0.0
38173,229.362,0.0,0.0
38203,229.702,0.0,0.0
38235,230.011,0.0,0.0
38273,230.227,0.0,0.0
38303,230.463,0.0,0.0
38337,230.661,0.0,0.0
38371,230.911,0.0,0.0
38402,231.006,0.0,0.0
38451,231.084,0.0,0.0
38487,231.223,0.0,0.0
38503,231.48,0.0,0.0
38535,231.743,0.0,0.0
38569,232.006,0.0,0.0
38605,231.839,0.0,0.0
38642,230.761,0.0,0.0
38680,230.211,0.0,0.0
38716,229.769,0.0,0.0
38743,229.849,0.0,0.0
38779,229.864,0.0,0.0
38803,230.218,0.0,0.0
38839,230.517,0.0,0.0
38868,230.344,0.0,0.0
38902,229.923,0.0,0.0
38940,229.713,0.0,0.0
38978,229.809,0.0,0.0
39001,229.986,0.0,0.0
39036,230.329,0.0,0.0
39070,230.678,0.0,0.0
39103,230.943,0.0,0.0
39140,231.159,0.0,0.0
39168,231.249,0.0,0.0
39205,231.361,0.0,0.0
39238,231.424,0.0,0.0
39275,231.553,0.0,0.0
39303,231.693,0.0,0.0
39338,231.838,0.0,0.0
39366,231.379,0.0,0.0
39401,229.573,0.0,0.0
39440,229.022,0.0,0.0
39473,228.662,0.0,0.0
39506,228.742,0.0,0.0
39536,229.076,0.0,0.0
39581,229.394,0.0,0.0
39602,230.101,0.0,0.0
39633,230.176,0.0,0.0
39671,229.868,0.0,0.0
39705,229.732,0.0,0.0
39743,229.694,0.0,0.0
39773,229.926,0.0,0.0
39800,230.261,0.0,0.0
39839,230.567,0.0,0.0
39871,230.887,0.0,0.0
39900,231.297,0.0,0.0
39936,231.499,0.0,0.0
39970,231.669,0.0,0.0
40003,231.796,0.0,0.0
40049,231.891,0.0,0.0
40073,232.133,0.0,0.0
40112,232.3,0.0,0.0
40153,231.978,0.0,0.0
40178,230.116,0.0,0.0
40208,229.247,0.0,0.0
40247,228.891,0.0,0.0
40281,228.979,0.0,0.0
40314,229.277,0.0,0.0
40348,229.681,0.0,0.0
40376,230.113,0.0,0.0
40406,230.613,0.0,0.0
40441,230.482,0.0,0.0
40479,230.283,0.0,0.0
40512,230.251,0.0,0.0
40544,230.453,0.0,0.0
40579,230.805,0.0,0.0
40613,231.24,0.0,0.0
40640,231.664,0.0,0.0
40671,232.27,0.0,0.0
40708,232.523,0.0,0.0
40738,232.911,0.0,0.0
40767,233.128,0.0,0.0
40801,233.285,0.0,0.0
40840,233.393,0.0,0.0
40880,233.714,0.0,0.0
40908,233.077,0.0,0.0
40935,231.034,0.0,0.0
40972,230.14,0.0,0.0
41011,229.843,0.0,0.0
41044,229.728,0.0,0.0
41077,230.138,0.0,0.0
41107,230.477,0.0,0.0
41142,231.239,0.0,0.0
41182,231.35,0.0,0.0
41215,231.094,0.0,0.0
41246,230.845,0.0,0.0
41276,230.91,0.0,0.0
41309,231.18,0.0,0.0
41344,231.582,0.0,0.0
41387,232.039,0.0,0.0
41420,232.609,0.0,0.0
41457,233.064,0.0,0.0
41483,233.558,0.0,0.0
41514,233.985,0.0,0.0
41544,234.35,0.0,0.0
41568,234.587,0.0,0.0
41613,234.525,0.0,0.0
41637,233.876,0.0,0.0
41669,231.906,0.0,0.0
41705,230.956,0.0,0.0
41737,230.785,0.0,0.0
41772,231.534,0.0,0.0
41803,231.908,0.0,0.0
41838,232.752,0.0,0.0
41871,233.535,0.0,0.0
41902,233.63,0.0,0.0
41937,233.294,0.0,0.0
41966,233.144,0.0,0.0
42009,232.97,0.0,0.0
42053,233.043,0.0,0.0
42079,233.369,0.0,0.0
42108,233.75,0.0,0.0
42154,234.285,0.0,0.0
42188,234.575,0.0,0.0
42210,234.536,0.0,0.0
42233,234.752,0.0,0.0
42270,234.641,0.0,0.0
42301,234.129,0.0,0.0
42338,232.472,0.0,0.0
42376,230.715,0.0,0.0
42408,230.269,0.0,0.0
42444,230.37,0.0,0.0
42470,231.108,0.0,0.0
42503,231.654,0.0,0.0
42547,232.665,0.0,0.0
42590,233.276,0.0,0.0
42616,233.188,0.0,0.0
42642,233.021,0.0,0.0
42680,233.13,0.0,0.0
42709,233.266,0.0,0.0
42749,233.665,0.0,0.0
42791,234.028,0.0,0.0
42811,234.366,0.0,0.0
42843,234.275,0.0,0.0
42884,234.056,0.0,0.0
42960,234.283,0.0,0.0
42968,234.42,0.0,0.0
42982,233.374,0.0,0.0
43013,230.944,0.0,0.0
43051,229.433,0.0,0.0
43089,228.786,0.0,0.0
43120,228.734,0.0,0.0
43142,228.439,0.0,0.0
43175,228.827,0.0,0.0
43207,229.256,0.0,0.0
43242,229.275,0.0,0.0
43274,228.901,0.0,0.0
43301,228.715,0.0,0.0
43334,228.681,0.0,0.0
43373,228.823,0.0,0.0
43414,229.108,0.0,0.0
43436,229.451,0.0,0.0
43475,229.586,0.0,0.0
43509,229.767,0.0,0.0
43541,229.965,0.0,0.0
43577,229.861,0.0,0.0
43610,229.464,0.0,0.0
43644,228.208,0.0,0.0
43677,226.637,0.0,0.0
43711,226.177,0.0,0.0
43743,225.941,0.0,0.0
43778,226.299,0.0,0.0
43812,226.581,0.0,0.0
43846,226.923,0.0,0.0
43882,227.329,0.0,0.0
43918,226.974,0.0,0.0
43946,226.563,0.0,0.0
43982,226.508,0.0,0.0
44019,226.643,0.0,0.0
44048,226.887,0.0,0.0
44080,227.167,0.0,0.0
44116,227.349,0.0,0.0
44146,227.557,0.0,0.0
44181,227.907,0.0,0.0
44213,228.185,0.0,0.0
44247,228.538,0.0,0.0
44291,228.311,0.0,0.0
44313,227.43,0.0,0.0
44339,226.664,0.0,0.0
44377,226.121,0.0,0.0
44425,226.246,0.0,0.0
44443,226.224,0.0,0.0
44486,226.644,0.0,0.0
44528,227.035,0.0,0.0
44539,227.092,0.0,0.0
44592,226.871,0.0,0.0
44608,226.694,0.0,0.0
44642,226.672,0.0,0.0
44680,226.853,0.0,0.0
44714,227.249,0.0,0.0
44763,227.616,0.0,0.0
44778,227.995,0.0,0.0
44806,228.316,0.0,0.0
44842,228.571,0.0,0.0
44882,228.91,0.0,0.0
44909,228.978,0.0,0.0
44947,228.777,0.0,0.0
44978,227.84,0.0,0.0
45029,227.141,0.0,0.0
45050,226.709,0.0,0.0
45084,226.876,0.0,0.0
45111,227.034,0.0,0.0
45147,227.502,0.0,0.0
45180,227.91,0.0,0.0
45213,227.911,0.0,0.0
45244,227.542,0.0,0.0
45280,227.338,0.0,0.0
45312,227.351,0.0,0.0
45345,227.5,0.0,0.0
45370,227.756,0.0,0.0
45413,227.969,0.0,0.0
45440,228.186,0.0,0.0
45503,228.434,0.0,0.0
45507,228.775,0.0,0.0
45550,228.764,0.0,0.0
45573,228.748,0.0,0.0
45619,228.087,0.0,0.0
45639,226.972,0.0,0.0
45685,226.34,0.0,0.0
45719,226.149,0.0,0.0
45739,226.0,0.0,0.0
45776,226.316,0.0,0.0
45817,226.723,0.0,0.0
45840,227.01,0.0,0.0
45883,226.821,0.0,0.0
45908,226.423,0.0,0.0
45950,226.341,0.0,0.0
45983,226.37,0.0,0.0
46022,226.502,0.0,0.0
46061,226.803,0.0,0.0
46088,227.043,0.0,0.0
46107,227.222,0.0,0.0
46142,227.407,0.0,0.0
46205,227.542,0.0,0.0
46208,227.558,0.0,0.0
46236,227.264,0.0,0.0
46277,226.34,0.0,0.0
46307,225.54,0.0,0.0
46354,224.843,0.0,0.0
46373,224.741,0.0,0.0
46408,224.918,0.0,0.0
46442,225.209,0.0,0.0
46479,225.631,0.0,0.0
46506,225.706,0.0,0.0
46541,225.528,0.0,0.0
46577,225.362,0.0,0.0
46614,225.298,0.0,0.0
46641,225.453,0.0,0.0
46682,225.664,0.0,0.0
46714,225.973,0.0,0.0
46750,226.245,0.0,0.0
46778,226.398,0.0,0.0
46810,226.547,0.0,0.0
46841,226.707,0.0,0.0
46878,226.809,0.0,0.0
46911,226.689,0.0,0.0
46951,226.135,0.0,0.0
46978,225.239,0.0,0.0
47009,224.49,0.0,0.0
47066,224.386,0.0,0.0
47081,224.522,0.0,0.0
47108,224.737,0.0,0.0
47169,225.047,0.0,0.0
47179,225.184,0.0,0.0
47236,225.08,0.0,0.0
47267,224.966,0.0,0.0
47304,225.035,0.0,0.0
47323,225.178,0.0,0.0
47345,225.415,0.0,0.0
47396,225.671,0.0,0.0
47413,225.938,0.0,0.0
47448,226.123,0.0,0.0
47486,226.261,0.0,0.0
47505,226.264,0.0,0.0
47533,226.362,0.0,0.0
47569,226.592,0.0,0.0
47601,226.652,0.0,0.0
47633,226.083,0.0,0.0
47688,225.282,0.0,0.0
47707,224.559,0.0,0.0
47738,224.373,0.0,0.0
47770,224.476,0.0,0.0
47800,224.717,0.0,0.0
47841,225.147,0.0,0.0
47870,225.286,0.0,0.0
47923,225.156,0.0,0.0
47956,225.047,0.0,0.0
47976,225.034,0.0,0.0
48014,225.212,0.0,0.0
48039,225.476,0.0,0.0
48076,225.726,0.0,0.0
48107,226.019,0.0,0.0
48159,226.253,0.0,0.0
48173,226.403,0.0,0.0
48224,226.486,0.0,0.0
48242,226.57,0.0,0.0
48280,226.716,0.0,0.0
48311,226.868,0.0,0.0
48347,227.024,0.0,0.0
48378,226.592,0.0,0.0
48409,225.776,0.0,0.0
48441,225.004,0.0,0.0
48478,224.842,0.0,0.0
48508,224.963,0.0,0.0
48541,225.199,0.0,0.0
48576,225.601,0.0,0.0
48610,225.802,0.0,0.0
48642,225.69,0.0,0.0
48678,225.579,0.0,0.0
48702,225.525,0.0,0.0
48732,225.673,0.0,0.0
48767,225.854,0.0,0.0
48828,226.091,0.0,0.0
48846,226.356,0.0,0.0
48887,226.486,0.0,0.0
48912,226.648,0.0,0.0
48949,226.749,0.0,0.0
48984,226.829,0.0,0.0
49017,227.012,0.0,0.0
49046,227.321,0.0,0.0
49079,227.491,0.0,0.0
49116,227.52,0.0,0.0
49147,226.62,0.0,0.0
49171,225.517,0.0,0.0
49219,224.943,0.0,0.0
49247,225.142,0.0,0.0
49284,225.305,0.0,0.0
49305,225.805,0.0,0.0
49339,226.138,0.0,0.0
49386,226.409,0.0,0.0
49406,226.098,0.0,0.0
49441,225.781,0.0,0.0
49485,225.741,0.0,0.0
49517,225.921,0.0,0.0
49541,226.266,0.0,0.0
49587,226.63,0.0,0.0
49613,226.878,0.0,0.0
49653,227.125,0.0,0.0
49676,227.229,0.0,0.0
49726,227.271,0.0,0.0
49742,227.395,0.0,0.0
49777,227.539,0.0,0.0
49813,227.799,0.0,0.0
49864,227.519,0.0,0.0
49891,226.324,0.0,0.0
49906,225.73,0.0,0.0
49941,225.369,0.0,0.0
49988,225.467,0.0,0.0
50012,225.77,0.0,0.0
50073,226.098,0.0,0.0
50078,226.807,0.0,0.0
50123,226.635,0.0,0.0
50152,226.256,0.0,0.0
50186,226.105,0.0,0.0
50221,226.126,0.0,0.0
50253,226.281,0.0,0.0
50284,226.585,0.0,0.0
50326,226.829,0.0,0.0
50362,226.971,0.0,0.0
50376,227.275,0.0,0.0
50406,227.676,0.0,0.0
50445,227.81,0.0,0.0
50483,227.966,0.0,0.0
50503,228.057,0.0,0.0
50546,227.611,0.0,0.0
50582,226.112,0.0,0.0
50614,225.565,0.0,0.0
50648,225.131,0.0,0.0
50669,225.208,0.0,0.0
50714,225.423,0.0,0.0
50735,225.926,0.0,0.0
50781,226.389,0.0,0.0
50815,226.421,0.0,0.0
50845,226.191,0.0,0.0
50906,226.06,0.0,0.0
50918,226.099,0.0,0.0
50946,226.295,0.0,0.0
50985,226.66,0.0,0.0
51005,227.043,0.0,0.0
51042,227.4,0.0,0.0
51074,227.657,0.0,0.0
51106,227.869,0.0,0.0
51159,228.078,0.0,0.0
51183,228.241,0.0,0.0
51220,228.365,0.0,0.0
51252,228.044,0.0,0.0
51273,226.477,0.0,0.0
51308,225.996,0.0,0.0
51352,225.379,0.0,0.0
51374,225.404,0.0,0.0
51410,225.596,0.0,0.0
51454,226.015,0.0,0.0
51477,226.512,0.0,0.0
51508,226.665,0.0,0.0
51542,226.482,0.0,0.0
51587,226.344,0.0,0.0
51610,226.377,0.0,0.0
51646,226.523,0.0,0.0
51677,226.932,0.0,0.0
51708,227.344,0.0,0.0
51758,227.671,0.0,0.0
51778,227.911,0.0,0.0
51807,228.078,0.0,0.0
51859,228.217,0.0,0.0
51876,228.362,0.0,0.0
51906,228.493,0.0,0.0
51941,228.332,0.0,0.0
51975,226.985,0.0,0.0
52011,226.337,0.0,0.0
52040,225.798,0.0,0.0
52076,225.611,0.0,0.0
52126,225.857,0.0,0.0
52149,226.271,0.0,0.0
52173,226.686,0.0,0.0
52209,226.813,0.0,0.0
52246,226.617,0.0,0.0
52280,226.425,0.0,0.0
52301,226.469,0.0,0.0
52335,226.64,0.0,0.0
52367,226.982,0.0,0.0
52412,227.353,0.0,0.0
52443,227.655,0.0,0.0
52479,227.899,0.0,0.0
52515,228.044,0.0,0.0
52536,228.196,0.0,0.0
52581,228.348,0.0,0.0
52611,228.473,0.0,0.0
52639,228.454,0.0,0.0
52682,227.716,0.0,0.0
52706,226.637,0.0,0.0
52736,226.019,0.0,0.0
52773,225.683,0.0,0.0
52818,225.822,0.0,0.0
52851,226.206,0.0,0.0
52896,226.658,0.0,0.0
52906,226.848,0.0,0.0
52946,226.635,0.0,0.0
52980,226.426,0.0,0.0
53014,226.414,0.0,0.0
53064,226.541,0.0,0.0
53092,226.712,0.0,0.0
53118,227.001,0.0,0.0
53152,227.32,0.0,0.0
53185,227.53,0.0,0.0
53219,227.67,0.0,0.0
53253,227.829,0.0,0.0
53286,227.967,0.0,0.0
53319,228.111,0.0,0.0
53344,228.119,0.0,0.0
53389,227.597,0.0,0.0
53410,226.643,0.0,0.0
53453,225.923,0.0,0.0
53477,225.752,0.0,0.0
53501,225.896,0.0,0.0
53536,226.338,0.0,0.0
53568,226.592,0.0,0.0
53602,227.223,0.0,0.0
53636,227.034,0.0,0.0
53670,226.638,0.0,0.0
53703,226.566,0.0,0.0
53737,226.69,0.0,0.0
53771,226.927,0.0,0.0
53804,227.269,0.0,0.0
53839,227.576,0.0,0.0
53872,227.775,0.0,0.0
53906,227.923,0.0,0.0
53940,228.104,0.0,0.0
53974,228.243,0.0,0.0
54014,228.394,0.0,0.0
54045,228.476,0.0,0.0
54075,227.988,0.0,0.0
54113,226.816,0.0,0.0
54172,226.332,0.0,0.0
54186,226.063,0.0,0.0
54211,226.305,0.0,0.0
54242,226.788,0.0,0.0
54269,227.259,0.0,0.0
54310,227.908,0.0,0.0
54343,227.643,0.0,0.0
54377,227.217,0.0,0.0
54410,227.087,0.0,0.0
54444,227.199,0.0,0.0
54478,227.433,0.0,0.0
54512,227.747,0.0,0.0
54544,228.128,0.0,0.0
54581,228.459,0.0,0.0
54612,228.678,0.0,0.0
54645,228.983,0.0,0.0
54680,229.124,0.0,0.0
54713,229.454,0.0,0.0
54748,229.11,0.0,0.0
54784,227.558,0.0,0.0
54816,226.765,0.0,0.0
54839,226.216,0.0,0.0
54873,226.229,0.0,0.0
54916,226.398,0.0,0.0
54940,226.688,0.0,0.0
54982,227.479,0.0,0.0
55015,227.415,0.0,0.0
55050,227.001,0.0,0.0
55086,226.736,0.0,0.0
55108,226.713,0.0,0.0
55134,226.842,0.0,0.0
55167,227.085,0.0,0.0
55201,227.3,0.0,0.0
55242,227.485,0.0,0.0
55267,227.702,0.0,0.0
55301,227.852,0.0,0.0
55338,227.999,0.0,0.0
55368,227.981,0.0,0.0
55406,227.434,0.0,0.0
55436,226.269,0.0,0.0
55473,225.654,0.0,0.0
55506,225.076,0.0,0.0
55537,225.127,0.0,0.0
55574,225.304,0.0,0.0
55606,225.771,0.0,0.0
55638,226.036,0.0,0.0
55671,225.889,0.0,0.0
55705,225.5,0.0,0.0
55738,225.382,0.0,0.0
55772,225.353,0.0,0.0
55806,225.499,0.0,0.0
55840,225.664,0.0,0.0
55874,225.673,0.0,0.0
55906,225.88,0.0,0.0
55941,226.024,0.0,0.0
55976,226.069,0.0,0.0
56007,226.168,0.0,0.0
56034,226.106,0.0,0.0
56096,225.645,0.0,0.0
56105,224.897,0.0,0.0
56182,224.081,0.0,0.0
56188,223.675,0.0,0.0
56221,223.642,0.0,0.0
56274,223.855,0.0,0.0
56305,224.392,0.0,0.0
56349,224.184,0.0,0.0
56378,224.183,0.0,0.0
56413,224.083,0.0,0.0
56430,224.168,0.0,0.0
56475,224.329,0.0,0.0
56512,224.647,0.0,0.0
56546,224.887,0.0,0.0
56579,225.019,0.0,0.0
56613,225.176,0.0,0.0
56633,225.256,0.0,0.0
56673,225.358,0.0,0.0
56706,225.335,0.0,0.0
56739,225.318,0.0,0.0
56783,224.843,0.0,0.0
56807,224.305,0.0,0.0
56833,223.46,0.0,0.0
56883,223.252,0.0,0.0
56900,223.304,0.0,0.0
56933,223.273,0.0,0.0
56967,223.665,0.0,0.0
57001,223.706,0.0,0.0
57036,223.576,0.0,0.0
57068,223.49,0.0,0.0
57101,223.492,0.0,0.0
57152,223.625,0.0,0.0
57168,223.757,0.0,0.0
57221,223.937,0.0,0.0
57235,224.151,0.0,0.0
57278,224.318,0.0,0.0
57307,224.443,0.0,0.0
57347,224.407,0.0,0.0
57372,224.473,0.0,0.0
57405,224.765,0.0,0.0
57438,224.919,0.0,0.0
57475,224.927,0.0,0.0
57510,224.584,0.0,0.0
57545,224.063,0.0,0.0
57581,223.232,0.0,0.0
57606,223.011,0.0,0.0
57642,223.101,0.0,0.0
57677,223.254,0.0,0.0
57714,223.528,0.0,0.0
57737,223.637,0.0,0.0
57778,223.487,0.0,0.0
57808,223.36,0.0,0.0
57833,223.431,0.0,0.0
57878,223.559,0.0,0.0
57911,223.727,0.0,0.0
57942,223.964,0.0,0.0
57982,224.162,0.0,0.0
58006,224.334,0.0,0.0
58035,224.508,0.0,0.0
58080,224.594,0.0,0.0
58102,224.581,0.0,0.0
58147,224.686,0.0,0.0
58181,225.044,0.0,0.0
58217,225.149,0.0,0.0
58238,225.281,0.0,0.0
58284,224.97,0.0,0.0
58314,224.503,0.0,0.0
58346,223.739,0.0,0.0
58371,223.54,0.0,0.0
58409,223.566,0.0,0.0
58434,223.672,0.0,0.0
58472,224.123,0.0,0.0
58516,224.226,0.0,0.0
58540,224.022,0.0,0.0
58584,223.897,0.0,0.0
58607,223.9,0.0,0.0
58662,224.016,0.0,0.0
58665,224.134,0.0,0.0
58709,224.327,0.0,0.0
58739,224.514,0.0,0.0
58773,224.694,0.0,0.0
58803,224.836,0.0,0.0
58840,224.766,0.0,0.0
58873,225.085,0.0,0.0
58910,225.205,0.0,0.0
58941,225.344,0.0,0.0
58968,225.584,0.0,0.0
59005,225.738,0.0,0.0
59041,225.319,0.0,0.0
59072,224.795,0.0,0.0
59122,224.024,0.0,0.0
59150,223.884,0.0,0.0
59187,224.075,0.0,0.0
59218,224.54,0.0,0.0
59256,224.916,0.0,0.0
59287,225.125,0.0,0.0
59324,224.892,0.0,0.0
59350,224.866,0.0,0.0
59395,224.954,0.0,0.0
59416,225.062,0.0,0.0
59446,225.331,0.0,0.0
59474,225.595,0.0,0.0
59497,225.853,0.0,0.0
59531,226.062,0.0,0.0
59564,226.26,0.0,0.0
59599,226.402,0.0,0.0
59634,226.577,0.0,0.0
59666,226.756,0.0,0.0
59717,226.99,0.0,0.0
59737,227.116,0.0,0.0
59783,226.629,0.0,0.0
59813,225.977,0.0,0.0
59844,225.406,0.0,0.0
59883,225.441,0.0,0.0
59911,225.715,0.0,0.0
59935,226.178,0.0,0.0
59971,226.561,0.0,0.0
60014,226.956,0.0,0.0
60046,226.717,0.0,0.0
60086,226.559,0.0,0.0
60104,226.598,0.0,0.0
60142,226.935,0.0,0.0
60172,227.398,0.0,0.0
60229,228.025,0.0,0.0
60243,228.586,0.0,0.0
60280,229.105,0.0,0.0
60299,229.492,0.0,0.0
60349,229.599,0.0,0.0
60366,229.722,0.0,0.0
60419,229.82,0.0,0.0
60440,230.151,0.0,0.0
60470,229.88,0.0,0.0
60509,228.571,0.0,0.0
60538,228.07,0.0,0.0
60574,228.113,0.0,0.0
60608,228.435,0.0,0.0
60638,228.668,0.0,0.0
60671,229.008,0.0,0.0
60723,229.741,0.0,0.0
60742,229.765,0.0,0.0
60777,229.481,0.0,0.0
60826,229.605,0.0,0.0
60836,229.643,0.0,0.0
60871,229.857,0.0,0.0
60921,230.143,0.0,0.0
60939,230.501,0.0,0.0
60972,230.751,0.0,0.0
61006,230.948,0.0,0.0
61037,231.038,0.0,0.0
61072,231.106,0.0,0.0
61108,231.126,0.0,0.0
61136,231.062,0.0,0.0
61176,230.698,0.0,0.0
61208,229.115,0.0,0.0
61232,228.155,0.0,0.0
61289,227.645,0.0,0.0
61306,227.641,0.0,0.0
61339,227.923,0.0,0.0
61364,228.056,0.0,0.0
61410,228.505,0.0,0.0
61444,228.585,0.0,0.0
61476,228.302,0.0,0.0
61511,228.002,0.0,0.0
61544,227.881,0.0,0.0
61581,227.975,0.0,0.0
61608,228.095,0.0,0.0
61634,228.395,0.0,0.0
61684,228.644,0.0,0.0
61703,228.789,0.0,0.0
61750,228.912,0.0,0.0
61771,229.023,0.0,0.0
61815,229.136,0.0,0.0
61848,229.392,0.0,0.0
61882,229.313,0.0,0.0
61903,228.364,0.0,0.0
61933,227.223,0.0,0.0
61974,226.674,0.0,0.0
62017,226.393,0.0,0.0
62038,226.521,0.0,0.0
62085,226.832,0.0,0.0
62105,227.194,0.0,0.0
62163,227.344,0.0,0.0
62203,227.159,0.0,0.0
62216,226.897,0.0,0.0
62245,226.832,0.0,0.0
62277,226.975,0.0,0.0
62326,227.213,0.0,0.0
62344,227.466,0.0,0.0
62377,227.705,0.0,0.0
62420,227.89,0.0,0.0
62466,228.05,0.0,0.0
62479,228.201,0.0,0.0
62501,228.297,0.0,0.0
62539,228.393,0.0,0.0
62570,228.441,0.0,0.0
62601,228.06,0.0,0.0
62639,227.002,0.0,0.0
62670,226.406,0.0,0.0
62702,225.896,0.0,0.0
62739,225.998,0.0,0.0
62771,226.241,0.0,0.0
62803,226.654,0.0,0.0
62846,227.033,0.0,0.0
62875,226.933,0.0,0.0
62902,226.666,0.0,0.0
62934,226.546,0.0,0.0
62977,226.647,0.0,0.0
62999,226.81,0.0,0.0
63042,227.182,0.0,0.0
63076,227.47,0.0,0.0
63104,227.786,0.0,0.0
63146,227.918,0.0,0.0
63165,228.086,0.0,0.0
63207,228.226,0.0,0.0
63248,228.372,0.0,0.0
63269,228.473,0.0,0.0
63309,228.516,0.0,0.0
63333,228.004,0.0,0.0
63383,227.054,0.0,0.0
63410,226.287,0.0,0.0
63446,226.11,0.0,0.0
63480,226.217,0.0,0.0
63497,226.647,0.0,0.0
63535,226.965,0.0,0.0
63570,227.561,0.0,0.0
63614,227.413,0.0,0.0
63647,227.075,0.0,0.0
63669,226.949,0.0,0.0
63717,227.044,0.0,0.0
63739,227.261,0.0,0.0
63783,227.576,0.0,0.0
63804,227.874,0.0,0.0
63838,228.129,0.0,0.0
63885,228.374,0.0,0.0
63908,228.497,0.0,0.0
63931,228.612,0.0,0.0
63986,228.747,0.0,0.0
64006,228.86,0.0,0.0
64050,228.755,0.0,0.0
64073,228.044,0.0,0.0
64120,227.134,0.0,0.0
64140,226.625,0.0,0.0
64164,226.515,0.0,0.0
64198,226.95,0.0,0.0
64236,227.402,0.0,0.0
64273,228.007,0.0,0.0
64309,228.318,0.0,0.0
64334,227.93,0.0,0.0
64373,227.557,0.0,0.0
64401,227.562,0.0,0.0
64438,227.707,0.0,0.0
64469,228.014,0.0,0.0
64503,228.357,0.0,0.0
64538,228.662,0.0,0.0
64574,228.888,0.0,0.0
64600,229.11,0.0,0.0
64634,229.25,0.0,0.0
64673,229.596,0.0,0.0
64706,229.203,0.0,0.0
64731,227.635,0.0,0.0
64776,226.904,0.0,0.0
64808,226.528,0.0,0.0
64833,226.378,0.0,0.0
64874,226.788,0.0,0.0
64906,227.144,0.0,0.0
64941,227.883,0.0,0.0
64973,227.835,0.0,0.0
65010,227.408,0.0,0.0
65044,227.166,0.0,0.0
65077,227.19,0.0,0.0
65099,227.373,0.0,0.0
65159,227.662,0.0,0.0
65179,227.941,0.0,0.0
65214,228.21,0.0,0.0
65250,228.368,0.0,0.0
65292,228.473,0.0,0.0
65319,228.628,0.0,0.0
65355,228.208,0.0,0.0
65380,227.043,0.0,0.0
65419,226.219,0.0,0.0
65448,225.618,0.0,0.0
65487,225.557,0.0,0.0
65502,225.723,0.0,0.0
65552,226.145,0.0,0.0
65569,226.563,0.0,0.0
65603,226.383,0.0,0.0
65648,226.069,0.0,0.0
65670,225.964,0.0,0.0
65701,225.966,0.0,0.0
65736,226.086,0.0,0.0
65775,226.292,0.0,0.0
65818,226.531,0.0,0.0
65833,226.682,0.0,0.0
65870,226.86,0.0,0.0
65903,226.896,0.0,0.0
65933,226.783,0.0,0.0
65970,226.312,0.0,0.0
66008,225.536,0.0,0.0
66036,224.747,0.0,0.0
66068,224.009,0.0,0.0
66120,224.125,0.0,0.0
66136,224.379,0.0,0.0
66171,224.703,0.0,0.0
66202,224.813,0.0,0.0
66236,224.731,0.0,0.0
66266,224.5,0.0,0.0
66306,224.403,0.0,0.0
66335,224.441,0.0,0.0
66362,224.588,0.0,0.0
66404,224.714,0.0,0.0
66436,224.866,0.0,0.0
66478,225.016,0.0,0.0
66524,225.062,0.0,0.0
66545,225.18,0.0,0.0
66563,225.064,0.0,0.0
66596,224.85,0.0,0.0
66645,224.387,0.0,0.0
66674,223.757,0.0,0.0
66699,223.098,0.0,0.0
66744,222.97,0.0,0.0
66776,223.072,0.0,0.0
66800,223.266,0.0,0.0
66835,223.457,0.0,0.0
66878,223.301,0.0,0.0
66898,223.157,0.0,0.0
66935,223.028,0.0,0.0
66982,223.138,0.0,0.0
67010,223.267,0.0,0.0
67047,223.426,0.0,0.0
67066,223.593,0.0,0.0
67102,223.766,0.0,0.0
67153,223.868,0.0,0.0
67177,223.964,0.0,0.0
67213,224.056,0.0,0.0
67245,224.136,0.0,0.0
67267,224.111,0.0,0.0
67302,223.915,0.0,0.0
67350,223.467,0.0,0.0
67369,222.874,0.0,0.0
67416,222.336,0.0,0.0
67448,222.284,0.0,0.0
67464,222.458,0.0,0.0
67514,222.741,0.0,0.0
67551,222.923,0.0,0.0
67580,222.818,0.0,0.0
67604,222.735,0.0,0.0
67639,222.724,0.0,0.0
67685,222.903,0.0,0.0
67701,223.061,0.0,0.0
67732,223.204,0.0,0.0
67767,223.398,0.0,0.0
67807,223.623,0.0,0.0
67836,223.739,0.0,0.0
67877,223.829,0.0,0.0
67919,223.873,0.0,0.0
67934,223.921,0.0,0.0
67969,224.025,0.0,0.0
68001,224.154,0.0,0.0
68051,224.349,0.0,0.0
68089,224.496,0.0,0.0
68100,224.508,0.0,0.0
68130,224.054,0.0,0.0
68186,223.519,0.0,0.0
68214,222.754,0.0,0.0
68249,222.685,0.0,0.0
68281,222.854,0.0,0.0
68316,223.098,0.0,0.0
68361,223.284,0.0,0.0
68373,223.357,0.0,0.0
68398,223.24,0.0,0.0
68442,223.079,0.0,0.0
68480,223.062,0.0,0.0
68503,223.16,0.0,0.0
68542,223.28,0.0,0.0
68563,223.486,0.0,0.0
68606,223.643,0.0,0.0
68640,223.849,0.0,0.0
68676,223.956,0.0,0.0
68704,224.025,0.0,0.0
68744,224.06,0.0,0.0
68777,224.184,0.0,0.0
68808,224.274,0.0,0.0
68843,224.377,0.0,0.0
68867,224.56,0.0,0.0
68913,224.746,0.0,0.0
68934,224.781,0.0,0.0
68978,224.139,0.0,0.0
69003,223.718,0.0,0.0
69034,223.353,0.0,0.0
69079,223.275,0.0,0.0
69103,223.608,0.0,0.0
69145,224.005,0.0,0.0
69184,224.158,0.0,0.0
69216,223.98,0.0,0.0
69248,223.819,0.0,0.0
69270,223.667,0.0,0.0
69303,223.856,0.0,0.0
69346,223.984,0.0,0.0
69382,224.132,0.0,0.0
69404,224.288,0.0,0.0
69435,224.454,0.0,0.0
69472,224.646,0.0,0.0
69503,224.653,0.0,0.0
69531,224.741,0.0,0.0
69568,224.603,0.0,0.0
69601,224.845,0.0,0.0
69636,225.002,0.0,0.0
69670,225.144,0.0,0.0
69699,225.3,0.0,0.0
69736,225.31,0.0,0.0
69770,224.783,0.0,0.0
69808,224.138,0.0,0.0
69836,223.626,0.0,0.0
69876,223.642,0.0,0.0
69908,223.58,0.0,0.0
69943,223.951,0.0,0.0
69969,224.111,0.0,0.0
70001,224.031,0.0,0.0
70030,223.897,0.0,0.0
70073,223.839,0.0,0.0
70107,223.964,0.0,0.0
70130,224.091,0.0,0.0
70161,224.247,0.0,0.0
70209,224.417,0.0,0.0
70237,224.609,0.0,0.0
70262,224.805,0.0,0.0
70307,224.84,0.0,0.0
70338,225.086,0.0,0.0
70363,225.184,0.0,0.0
70410,225.287,0.0,0.0
70430,225.573,0.0,0.0
70477,225.792,0.0,0.0
70508,225.935,0.0,0.0
70542,225.795,0.0,0.0
70574,224.966,0.0,0.0
70607,224.293,0.0,0.0
70644,223.724,0.0,0.0
70670,223.725,0.0,0.0
70710,223.876,0.0,0.0
70746,224.098,0.0,0.0
70779,224.393,0.0,0.0
70814,224.547,0.0,0.0
70846,224.462,0.0,0.0
70878,224.539,0.0,0.0
70915,224.705,0.0,0.0
70948,224.888,0.0,0.0
70962,225.047,0.0,0.0
71013,225.297,0.0,0.0
71045,225.739,0.0,0.0
71079,225.857,0.0,0.0
71099,226.037,0.0,0.0
71137,226.088,0.0,0.0
71182,226.203,0.0,0.0
71217,226.31,0.0,0.0
71241,226.626,0.0,0.0
71278,226.931,0.0,0.0
71311,227.227,0.0,0.0
71343,227.321,0.0,0.0
71376,226.636,0.0,0.0
71420,225.414,0.0,0.0
71443,224.759,0.0,0.0
71491,224.568,0.0,0.0
71529,224.7,0.0,0.0
71549,224.833,0.0,0.0
71567,225.06,0.0,0.0
71605,225.246,0.0,0.0
71636,225.204,0.0,0.0
71668,225.122,0.0,0.0
71702,225.091,0.0,0.0
71735,225.243,0.0,0.0
71763,225.428,0.0,0.0
71809,225.741,0.0,0.0
71841,226.049,0.0,0.0
71870,226.292,0.0,0.0
71911,226.45,0.0,0.0
71964,226.61,0.0,0.0
71979,226.735,0.0,0.0
72006,226.833,0.0,0.0
72042,226.979,0.0,0.0
72071,227.248,0.0,0.0
72095,227.541,0.0,0.0
72140,227.681,0.0,0.0
72176,227.558,0.0,0.0
72199,226.182,0.0,0.0
72241,225.386,0.0,0.0
72278,224.98,0.0,0.0
72298,225.113,0.0,0.0
72340,225.456,0.0,0.0
72377,225.829,0.0,0.0
72392,226.334,0.0,0.0
72431,226.503,0.0,0.0
72476,226.361,0.0,0.0
72508,226.222,0.0,0.0
72531,226.358,0.0,0.0
72580,226.568,0.0,0.0
72610,226.953,0.0,0.0
72646,227.276,0.0,0.0
72667,227.632,0.0,0.0
72715,227.837,0.0,0.0
72734,227.973,0.0,0.0
72778,228.11,0.0,0.0
72804,228.333,0.0,0.0
72830,228.462,0.0,0.0
72870,228.685,0.0,0.0
72898,228.853,0.0,0.0
72936,229.07,0.0,0.0
72965,228.994,0.0,0.0
73003,227.366,0.0,0.0
73035,226.257,0.0,0.0
73070,226.179,0.0,0.0
73102,226.184,0.0,0.0
73142,226.627,0.0,0.0
73201,227.084,0.0,0.0
73205,227.822,0.0,0.0
73237,228.329,0.0,0.0
73266,228.052,0.0,0.0
73298,227.703,0.0,0.0
73350,227.754,0.0,0.0
73366,227.978,0.0,0.0
73401,228.363,0.0,0.0
73436,228.802,0.0,0.0
73467,229.217,0.0,0.0
73502,229.659,0.0,0.0
73545,229.993,0.0,0.0
73568,230.407,0.0,0.0
73601,230.672,0.0,0.0
73637,230.832,0.0,0.0
73665,231.048,0.0,0.0
73701,231.115,0.0,0.0
73741,229.654,0.0,0.0
73767,227.469,0.0,0.0
73794,227.113,0.0,0.0
73838,227.252,0.0,0.0
