time,R,G,B
0,254.891,54.707,0.0
33,254.873,54.101,0.0
65,254.952,57.081,0.0
100,254.987,64.034,0.0
133,254.979,64.847,0.0
166,254.956,60.337,0.0
199,254.97,58.594,0.0
233,254.982,60.799,0.0
266,254.987,61.94,0.0
299,254.964,60.878,0.0
333,254.939,57.284,0.0
366,254.934,56.619,0.0
399,254.894,55.216,0.0
433,254.822,51.486,0.0
466,254.832,50.352,0.0
499,254.8,50.4,0.0
532,254.712,46.421,0.0
565,254.641,42.548,0.0
599,254.634,41.4,0.0
632,254.611,40.971,0.0
666,254.647,41.651,0.0
699,254.735,42.901,0.0
732,254.883,48.423,0.0
766,254.921,55.035,0.0
799,254.952,57.77,0.0
832,254.968,60.793,0.0
866,254.971,61.382,0.0
899,254.963,59.801,0.0
932,254.976,60.156,0.0
965,254.985,62.928,0.0
999,254.987,63.801,0.0
1032,254.989,63.427,0.0
1065,254.992,63.604,0.0
1099,254.989,63.773,0.0
1132,254.978,59.843,0.0
1165,254.965,55.146,0.0
1199,254.961,52.436,0.0
1232,254.966,52.272,0.0
1265,254.962,52.373,0.0
1299,254.972,53.528,0.0
1332,254.979,55.66,0.0
1364,254.982,56.954,0.0
1399,254.981,56.368,0.0
1432,254.98,56.472,0.0
1465,254.976,55.906,0.0
1498,254.973,54.832,0.0
1532,254.981,55.239,0.0
1565,254.983,57.413,0.0
1598,254.975,57.588,0.0
1632,254.973,56.271,0.0
1665,254.977,56.945,0.0
1698,254.978,58.584,0.0
1732,254.963,56.809,0.0
1765,254.952,53.25,0.0
1798,254.949,51.406,0.0
1831,254.958,52.004,0.0
1864,254.985,55.662,0.0
1898,254.997,62.225,0.0
1931,254.999,66.624,0.0
1965,254.999,67.934,0.0
1998,254.999,69.355,0.0
2031,254.999,70.991,0.0
2065,254.999,72.037,0.0
2098,255.0,71.506,0.0
2131,255.0,71.916,0.0
2165,255.0,73.092,0.0
2198,255.0,74.871,0.0
2231,255.0,75.724,0.0
2264,255.0,75.852,0.0
2298,255.0,75.805,0.0
2331,254.999,67.963,0.0
2364,254.995,59.622,0.0
2398,254.991,55.761,0.0
2431,254.989,54.182,0.0
2464,254.989,54.119,0.0
2498,254.989,54.861,0.0
2531,254.991,55.655,0.0
2564,254.994,57.201,0.0
2597,254.994,58.44,0.0
2631,254.994,58.723,0.0
2664,254.995,58.725,0.0
2697,254.995,58.156,0.0
2731,254.997,59.455,0.0
2764,254.998,61.503,0.0
2797,254.999,62.878,0.0
2831,254.999,63.602,0.0
2864,254.998,64.099,0.0
2897,254.99,60.646,0.0
2931,254.98,54.336,0.0
2964,254.978,51.691,0.0
2997,254.976,51.782,0.0
3030,254.977,52.056,0.0
3064,254.98,53.041,0.0
3097,254.982,54.139,0.0
3130,254.985,55.333,0.0
3164,254.981,55.27,0.0
3197,254.982,54.553,0.0
3230,254.985,54.847,0.0
3264,254.986,55.66,0.0
3297,254.987,55.742,0.0
3330,254.99,56.206,0.0
3364,254.991,57.129,0.0
3397,254.993,58.757,0.0
3430,254.993,59.712,0.0
3463,254.994,60.089,0.0
3497,254.995,60.848,0.0
3530,254.993,61.218,0.0
3563,254.982,57.269,0.0
3597,254.97,52.266,0.0
3630,254.967,50.545,0.0
3663,254.967,50.487,0.0
3697,254.973,51.702,0.0
3730,254.98,53.386,0.0
3763,254.982,54.969,0.0
3797,254.984,55.403,0.0
3830,254.984,55.381,0.0
3863,254.983,55.386,0.0
3896,254.981,54.839,0.0
3930,254.981,54.613,0.0
3963,254.982,54.598,0.0
3996,254.984,54.649,0.0
4030,254.986,55.449,0.0
4063,254.987,56.11,0.0
4096,254.989,56.38,0.0
4130,254.991,57.314,0.0
4163,254.987,57.985,0.0
4196,254.965,54.772,0.0
4230,254.938,49.596,0.0
4263,254.909,46.091,0.0
4296,254.889,44.941,0.0
4329,254.868,43.33,0.0
4363,254.864,42.278,0.0
4396,254.858,42.423,0.0
4429,254.846,42.758,0.0
4463,254.841,42.995,0.0
4496,254.849,43.181,0.0
4529,254.853,43.284,0.0
4563,254.853,43.319,0.0
4596,254.856,43.579,0.0
4629,254.859,44.067,0.0
4662,254.868,44.23,0.0
4696,254.876,44.797,0.0
4728,254.892,45.402,0.0
4762,254.899,46.906,0.0
4796,254.864,45.965,0.0
4829,254.824,42.492,0.0
4862,254.809,40.132,0.0
4896,254.807,39.754,0.0
4929,254.826,40.36,0.0
4962,254.853,41.689,0.0
4996,254.863,43.183,0.0
5029,254.868,44.025,0.0
5062,254.873,44.413,0.0
5095,254.866,44.401,0.0
5129,254.868,44.236,0.0
5162,254.876,44.878,0.0
5195,254.879,45.087,0.0
5228,254.884,45.55,0.0
5262,254.897,46.587,0.0
5295,254.906,47.551,0.0
5329,254.916,48.846,0.0
5362,254.92,49.812,0.0
5395,254.912,50.016,0.0
5429,254.858,47.032,0.0
5462,254.835,43.094,0.0
5495,254.83,42.003,0.0
5527,254.84,42.523,0.0
5562,254.853,43.656,0.0
5595,254.866,44.636,0.0
5628,254.881,45.811,0.0
5662,254.887,46.866,0.0
5695,254.879,46.822,0.0
5728,254.884,46.905,0.0
5762,254.885,47.342,0.0
5795,254.887,47.039,0.0
5828,254.879,46.792,0.0
5862,254.89,47.292,0.0
5895,254.895,48.114,0.0
5928,254.901,48.675,0.0
5961,254.902,49.146,0.0
5995,254.896,49.141,0.0
6027,254.847,47.094,0.0
6061,254.782,42.325,0.0
6095,254.761,39.655,0.0
6128,254.76,39.202,0.0
6161,254.788,39.935,0.0
6195,254.819,41.821,0.0
6228,254.823,43.029,0.0
6261,254.827,43.297,0.0
6295,254.837,43.829,0.0
6328,254.844,44.577,0.0
6361,254.836,44.822,0.0
6394,254.829,44.123,0.0
6428,254.83,44.008,0.0
6461,254.827,44.442,0.0
6494,254.842,44.923,0.0
6527,254.849,45.916,0.0
6561,254.858,46.513,0.0
6594,254.87,47.787,0.0
6628,254.884,49.039,0.0
6661,254.849,48.482,0.0
6694,254.797,44.583,0.0
6727,254.771,42.067,0.0
6761,254.773,41.498,0.0
6794,254.797,42.503,0.0
6827,254.816,43.9,0.0
6861,254.839,45.385,0.0
6894,254.846,46.648,0.0
6927,254.836,46.87,0.0
6961,254.835,46.834,0.0
6994,254.837,46.879,0.0
7027,254.842,47.35,0.0
7061,254.85,47.439,0.0
7094,254.868,48.222,0.0
7127,254.874,49.132,0.0
7161,254.885,50.06,0.0
7194,254.898,51.048,0.0
7227,254.915,52.297,0.0
7260,254.901,53.257,0.0
7294,254.846,49.918,0.0
7327,254.818,45.913,0.0
7360,254.824,45.14,0.0
7394,254.839,45.926,0.0
7427,254.852,46.763,0.0
7460,254.876,48.115,0.0
7494,254.889,49.952,0.0
7527,254.887,50.565,0.0
7560,254.883,50.572,0.0
7593,254.877,49.831,0.0
7627,254.883,49.795,0.0
7660,254.89,49.802,0.0
7693,254.893,50.035,0.0
7727,254.897,50.438,0.0
7760,254.905,51.277,0.0
7793,254.914,52.089,0.0
7827,254.922,52.887,0.0
7860,254.907,53.126,0.0
7893,254.849,49.338,0.0
7927,254.811,44.567,0.0
7960,254.814,43.412,0.0
7993,254.835,44.089,0.0
8026,254.854,45.625,0.0
8060,254.863,46.877,0.0
8093,254.885,48.218,0.0
8126,254.885,49.235,0.0
8160,254.876,49.033,0.0
8193,254.87,48.333,0.0
8226,254.874,48.329,0.0
8260,254.88,48.592,0.0
8293,254.888,49.073,0.0
8326,254.906,50.188,0.0
8360,254.917,51.916,0.0
8393,254.925,52.826,0.0
8426,254.935,53.552,0.0
8459,254.933,54.055,0.0
8493,254.892,52.39,0.0
8526,254.834,47.266,0.0
8559,254.808,43.794,0.0
8593,254.807,42.935,0.0
8626,254.819,43.119,0.0
8659,254.84,44.315,0.0
8693,254.851,45.306,0.0
8726,254.856,45.944,0.0
8759,254.858,46.22,0.0
8792,254.851,46.202,0.0
8826,254.833,45.206,0.0
8859,254.834,44.308,0.0
8892,254.844,44.572,0.0
8926,254.846,44.534,0.0
8959,254.861,44.966,0.0
8992,254.88,46.466,0.0
9026,254.887,47.385,0.0
9059,254.896,48.265,0.0
9092,254.914,50.001,0.0
9126,254.897,50.734,0.0
9159,254.845,47.518,0.0
9192,254.787,43.045,0.0
9225,254.769,40.728,0.0
9259,254.773,41.052,0.0
9292,254.778,41.695,0.0
9325,254.808,43.187,0.0
9359,254.832,45.211,0.0
9392,254.841,46.264,0.0
9425,254.839,46.616,0.0
9459,254.832,46.544,0.0
9492,254.831,46.55,0.0
9525,254.835,46.748,0.0
9559,254.84,47.196,0.0
9592,254.841,47.363,0.0
9625,254.852,47.719,0.0
9658,254.863,48.68,0.0
9692,254.878,49.796,0.0
9725,254.895,51.068,0.0
9758,254.909,52.46,0.0
9792,254.915,53.242,0.0
9825,254.921,54.392,0.0
9858,254.873,52.731,0.0
9892,254.811,47.21,0.0
9925,254.792,43.882,0.0
9958,254.798,43.74,0.0
9992,254.808,44.569,0.0
10025,254.82,45.259,0.0
10058,254.845,46.685,0.0
10091,254.853,48.399,0.0
10125,254.852,48.731,0.0
10158,254.84,48.245,0.0
10190,254.845,47.846,0.0
10225,254.841,47.981,0.0
10258,254.835,47.425,0.0
10291,254.846,47.511,0.0
10325,254.853,48.308,0.0
10358,254.863,48.871,0.0
10391,254.874,49.744,0.0
10425,254.902,51.214,0.0
10458,254.932,53.855,0.0
10491,254.927,55.763,0.0
10524,254.882,53.067,0.0
10558,254.834,48.123,0.0
10591,254.832,46.044,0.0
10624,254.842,46.136,0.0
10658,254.855,46.868,0.0
10690,254.875,48.159,0.0
10724,254.893,50.086,0.0
10758,254.892,51.054,0.0
10791,254.895,51.064,0.0
10824,254.894,51.241,0.0
10858,254.9,51.824,0.0
10891,254.908,52.52,0.0
10924,254.909,52.834,0.0
10957,254.919,53.813,0.0
10991,254.938,55.861,0.0
11024,254.947,57.815,0.0
11057,254.946,58.054,0.0
11091,254.96,58.913,0.0
11124,254.964,60.213,0.0
11157,254.968,61.475,0.0
11190,254.971,61.955,0.0
11224,254.972,63.025,0.0
11257,254.948,61.171,0.0
11290,254.905,55.111,0.0
11324,254.888,50.761,0.0
11357,254.89,49.778,0.0
11390,254.917,51.689,0.0
11424,254.951,54.926,0.0
11457,254.962,58.019,0.0
11489,254.966,59.237,0.0
11524,254.975,60.755,0.0
11557,254.973,61.2,0.0
11590,254.977,60.889,0.0
11624,254.978,61.436,0.0
11657,254.981,61.833,0.0
11690,254.984,62.537,0.0
11723,254.987,64.085,0.0
11757,254.989,64.966,0.0
11790,254.992,66.056,0.0
11823,254.994,67.544,0.0
11857,254.996,69.333,0.0
11890,254.998,71.182,0.0
11923,254.995,70.834,0.0
11957,254.984,66.036,0.0
11989,254.972,60.36,0.0
12023,254.969,57.825,0.0
12057,254.974,57.943,0.0
12090,254.979,59.536,0.0
12123,254.982,60.773,0.0
12157,254.985,62.061,0.0
12190,254.987,63.363,0.0
12223,254.987,63.555,0.0
12256,254.987,63.582,0.0
12290,254.988,63.682,0.0
12323,254.987,63.649,0.0
12356,254.989,63.447,0.0
12390,254.991,63.93,0.0
12423,254.992,64.804,0.0
12456,254.993,65.548,0.0
12489,254.993,66.637,0.0
12523,254.994,68.471,0.0
12556,254.996,70.134,0.0
12589,254.997,71.782,0.0
12623,254.992,69.337,0.0
12656,254.977,62.871,0.0
12689,254.97,58.522,0.0
12723,254.97,57.917,0.0
12756,254.975,58.984,0.0
12789,254.978,60.489,0.0
12823,254.985,62.552,0.0
12856,254.988,64.302,0.0
12889,254.987,64.278,0.0
12923,254.986,63.81,0.0
12956,254.987,64.136,0.0
12989,254.988,64.191,0.0
13023,254.988,64.017,0.0
13056,254.995,66.017,0.0
13089,254.998,70.551,0.0
13122,254.999,72.975,0.0
13156,254.999,74.196,0.0
13189,254.999,76.393,0.0
13222,254.999,77.11,0.0
13256,254.996,73.091,0.0
13289,254.991,66.532,0.0
13322,254.986,62.721,0.0
13355,254.986,61.554,0.0
13389,254.987,62.096,0.0
13422,254.99,63.081,0.0
13455,254.993,65.028,0.0
13489,254.994,66.71,0.0
13522,254.994,67.056,0.0
13555,254.995,67.258,0.0
13589,254.995,67.742,0.0
13622,254.995,68.054,0.0
13655,254.996,68.573,0.0
13689,254.996,69.477,0.0
13722,254.998,70.657,0.0
13755,254.998,72.123,0.0
13788,254.999,73.02,0.0
13822,254.998,74.164,0.0
13855,254.999,75.509,0.0
13888,254.999,77.371,0.0
13922,254.999,77.761,0.0
13955,254.996,73.628,0.0
13988,254.995,68.51,0.0
14022,254.993,66.516,0.0
14055,254.995,66.511,0.0
14088,254.997,68.115,0.0
14122,254.998,70.245,0.0
14155,254.998,72.069,0.0
14188,254.999,73.807,0.0
14221,254.999,75.297,0.0
14255,254.999,75.96,0.0
14288,254.999,76.268,0.0
14321,254.999,76.769,0.0
14355,254.999,77.637,0.0
14388,254.999,78.775,0.0
14421,254.999,80.198,0.0
14455,254.999,81.163,0.0
14488,255.0,81.847,0.0
14521,254.999,83.004,0.0
14555,255.0,84.176,0.0
14588,255.0,85.157,0.0
14621,255.0,85.547,0.0
14654,254.999,82.104,0.0
14688,254.999,76.206,0.0
14721,254.999,72.996,0.0
14754,254.999,72.751,0.0
14788,254.999,74.105,0.0
14821,254.999,75.4,0.0
14853,254.999,77.132,0.0
14888,254.999,78.679,0.0
14921,254.999,79.154,0.0
14954,254.999,79.288,0.0
14988,254.999,79.312,0.0
15021,254.999,79.43,0.0
15054,254.999,79.436,0.0
15087,254.999,79.901,0.0
15121,254.999,80.23,0.0
15154,255.0,80.229,0.0
15187,254.999,79.923,0.0
15221,254.999,79.998,0.0
15254,254.999,80.845,0.0
15287,254.999,81.256,0.0
15321,254.999,80.739,0.0
15353,254.999,76.44,0.0
15387,254.998,71.435,0.0
15420,254.997,68.898,0.0
15454,254.998,68.771,0.0
15487,254.998,70.146,0.0
15520,254.999,72.22,0.0
15554,254.999,74.041,0.0
15587,254.999,75.224,0.0
15620,254.999,75.406,0.0
15654,254.999,75.142,0.0
15687,254.999,75.265,0.0
15720,254.999,75.747,0.0
15754,254.999,76.346,0.0
15787,254.999,77.374,0.0
15820,254.999,78.448,0.0
15853,255.0,79.497,0.0
15887,255.0,79.985,0.0
15920,255.0,80.948,0.0
15953,255.0,82.104,0.0
15987,255.0,82.928,0.0
16020,254.999,82.63,0.0
16053,254.999,78.167,0.0
16087,254.998,71.792,0.0
16120,254.998,67.958,0.0
16152,254.998,67.494,0.0
16187,254.998,68.489,0.0
16220,254.999,69.821,0.0
16253,254.999,71.364,0.0
16286,254.999,72.762,0.0
16320,254.999,73.51,0.0
16353,254.999,73.814,0.0
16386,254.999,74.152,0.0
16420,254.999,74.531,0.0
16453,254.999,74.842,0.0
16486,254.999,76.208,0.0
16520,255.0,77.568,0.0
16553,255.0,78.719,0.0
16586,254.999,79.374,0.0
16620,255.0,80.392,0.0
16652,255.0,82.065,0.0
16686,255.0,83.46,0.0
16719,255.0,83.616,0.0
16753,255.0,79.76,0.0
16786,254.999,73.603,0.0
16819,254.999,70.437,0.0
16853,254.998,70.488,0.0
16886,254.999,71.802,0.0
16919,254.999,73.504,0.0
16953,254.999,75.295,0.0
16986,254.999,76.546,0.0
17019,254.999,77.284,0.0
17052,254.999,76.992,0.0
17086,255.0,76.737,0.0
17119,254.999,76.86,0.0
17152,254.999,77.421,0.0
17186,255.0,78.307,0.0
17219,254.999,79.142,0.0
17252,255.0,80.049,0.0
17286,255.0,81.18,0.0
17319,255.0,82.238,0.0
17352,255.0,83.002,0.0
17386,255.0,84.115,0.0
17419,255.0,85.429,0.0
17452,255.0,84.859,0.0
17485,254.999,79.166,0.0
17519,254.999,73.397,0.0
17552,254.999,71.603,0.0
17585,254.999,72.219,0.0
17619,254.999,73.1,0.0
17652,254.999,74.868,0.0
17685,254.999,76.411,0.0
17719,254.999,76.834,0.0
17752,254.999,76.683,0.0
17785,255.0,76.737,0.0
17819,254.999,76.57,0.0
17852,254.999,76.441,0.0
17885,254.999,77.416,0.0
17918,254.999,78.933,0.0
17952,254.999,79.887,0.0
17985,255.0,80.819,0.0
18018,255.0,81.768,0.0
18052,255.0,83.0,0.0
18085,254.999,82.375,0.0
18118,254.999,76.996,0.0
18152,254.998,71.804,0.0
18185,254.998,69.882,0.0
18218,254.998,70.085,0.0
18252,254.999,71.321,0.0
18285,254.999,73.145,0.0
18318,254.999,74.452,0.0
18351,254.999,75.102,0.0
18385,254.999,75.23,0.0
18418,254.999,74.913,0.0
18451,254.999,74.715,0.0
18485,254.999,74.9,0.0
18518,254.999,75.923,0.0
18551,255.0,76.987,0.0
18585,254.999,78.385,0.0
18618,255.0,79.68,0.0
18651,255.0,80.675,0.0
18685,255.0,81.637,0.0
18718,255.0,81.999,0.0
18751,255.0,83.031,0.0
18784,254.999,81.641,0.0
18818,254.999,75.853,0.0
18851,254.999,70.8,0.0
18884,254.999,69.282,0.0
18918,254.999,69.938,0.0
18951,254.999,71.018,0.0
18984,254.999,72.437,0.0
19018,254.999,74.54,0.0
19051,254.999,76.137,0.0
19084,254.999,76.706,0.0
19117,254.999,76.857,0.0
19151,254.999,76.923,0.0
19184,254.999,77.075,0.0
19217,254.999,77.608,0.0
19251,255.0,78.626,0.0
19284,255.0,79.731,0.0
19317,255.0,80.482,0.0
19351,255.0,81.223,0.0
19384,255.0,82.945,0.0
19417,255.0,84.129,0.0
19451,254.999,85.054,0.0
19484,255.0,84.268,0.0
19517,255.0,79.178,0.0
19550,254.999,73.872,0.0
19584,254.999,71.963,0.0
19617,254.999,72.994,0.0
19650,255.0,74.343,0.0
19684,254.999,75.611,0.0
19717,255.0,77.088,0.0
19750,255.0,78.176,0.0
19784,255.0,78.834,0.0
19817,255.0,79.426,0.0
19850,255.0,79.724,0.0
19884,255.0,80.067,0.0
19917,255.0,80.966,0.0
19950,255.0,81.833,0.0
19983,255.0,82.69,0.0
20017,255.0,83.941,0.0
20050,255.0,84.799,0.0
20083,255.0,85.48,0.0
20117,255.0,86.427,0.0
20150,255.0,87.05,0.0
20183,255.0,87.793,0.0
20217,255.0,86.705,0.0
20250,254.999,81.314,0.0
20283,254.999,76.223,0.0
20317,254.999,74.952,0.0
20350,255.0,75.529,0.0
20383,254.999,76.358,0.0
20416,255.0,77.264,0.0
20450,255.0,78.664,0.0
20483,255.0,79.233,0.0
20516,255.0,79.06,0.0
20550,255.0,78.798,0.0
20583,255.0,78.313,0.0
20616,255.0,77.944,0.0
20650,255.0,78.747,0.0
20683,254.999,79.641,0.0
20716,255.0,80.175,0.0
20750,255.0,80.681,0.0
20783,254.999,81.066,0.0
20815,255.0,81.576,0.0
20849,255.0,81.974,0.0
20883,254.999,78.745,0.0
20916,254.999,72.777,0.0
20949,254.998,69.318,0.0
20983,254.998,69.177,0.0
21016,254.999,70.309,0.0
21049,254.999,71.369,0.0
21083,254.999,72.91,0.0
21116,254.999,74.646,0.0
21149,254.999,75.04,0.0
21183,254.999,74.71,0.0
21216,254.999,74.238,0.0
21249,254.999,74.141,0.0
21283,254.999,74.752,0.0
21315,254.999,75.909,0.0
21349,255.0,77.232,0.0
21382,254.999,78.378,0.0
21416,254.999,79.188,0.0
21449,254.999,79.737,0.0
21482,255.0,79.948,0.0
21516,255.0,80.48,0.0
21549,255.0,80.624,0.0
21582,254.999,77.516,0.0
21614,254.998,71.697,0.0
21649,254.996,66.877,0.0
21682,254.996,65.624,0.0
21715,254.997,66.686,0.0
21749,254.999,68.317,0.0
21782,254.999,69.754,0.0
21815,254.999,71.502,0.0
21849,254.999,72.759,0.0
21882,254.999,73.83,0.0
21915,254.999,74.345,0.0
21949,254.999,76.358,0.0
21982,254.999,77.424,0.0
22015,255.0,78.456,0.0
22048,255.0,80.028,0.0
22082,255.0,81.079,0.0
22114,255.0,81.323,0.0
22148,255.0,81.642,0.0
22182,255.0,82.17,0.0
22215,255.0,82.427,0.0
22248,255.0,81.945,0.0
22282,254.999,77.197,0.0
22315,254.998,70.934,0.0
22348,254.998,67.726,0.0
22382,254.998,68.092,0.0
22415,254.999,69.816,0.0
22448,254.999,71.31,0.0
22481,254.999,72.497,0.0
22515,254.999,73.666,0.0
22548,254.999,74.582,0.0
22581,254.999,74.966,0.0
22614,254.999,74.829,0.0
22648,254.999,74.827,0.0
22681,254.999,75.396,0.0
22715,255.0,76.757,0.0
22748,255.0,77.784,0.0
22781,255.0,78.564,0.0
22815,255.0,79.639,0.0
22848,255.0,80.661,0.0
22881,255.0,81.591,0.0
22914,255.0,82.449,0.0
22948,255.0,82.39,0.0
22981,254.999,77.71,0.0
23014,254.998,71.231,0.0
23048,254.998,68.189,0.0
23081,254.998,68.279,0.0
23114,254.999,69.852,0.0
23148,254.999,71.524,0.0
23181,254.999,73.053,0.0
23214,254.999,73.819,0.0
23248,254.999,74.022,0.0
23281,254.999,73.964,0.0
23314,254.999,73.779,0.0
23347,254.999,73.801,0.0
23381,254.999,73.941,0.0
23414,254.999,74.861,0.0
23447,254.999,76.502,0.0
23481,255.0,77.481,0.0
23514,254.999,78.126,0.0
23547,254.999,78.886,0.0
23581,254.999,78.857,0.0
23614,254.999,73.942,0.0
23647,254.997,68.087,0.0
23680,254.995,65.37,0.0
23714,254.997,65.663,0.0
23747,254.997,66.943,0.0
23780,254.998,68.093,0.0
23814,254.998,69.782,0.0
23847,254.999,71.012,0.0
23880,254.999,71.5,0.0
23914,254.999,71.642,0.0
23947,254.999,72.352,0.0
23980,254.999,73.515,0.0
24014,254.999,75.109,0.0
24047,254.999,76.392,0.0
24080,255.0,77.638,0.0
24113,255.0,78.635,0.0
24147,254.999,79.796,0.0
24180,255.0,81.282,0.0
24213,255.0,82.347,0.0
24247,254.999,81.373,0.0
24280,254.999,75.787,0.0
24313,254.998,70.634,0.0
24347,254.998,68.956,0.0
24380,254.999,69.364,0.0
24413,254.999,71.02,0.0
24447,254.999,72.48,0.0
24480,254.999,74.147,0.0
24513,254.999,75.472,0.0
24546,254.999,76.26,0.0
24580,255.0,76.807,0.0
24613,254.999,77.346,0.0
24646,255.0,78.111,0.0
24680,255.0,79.277,0.0
24713,255.0,80.718,0.0
24746,255.0,82.201,0.0
24780,255.0,83.621,0.0
24813,255.0,85.463,0.0
24846,255.0,87.021,0.0
24880,255.0,87.821,0.0
24913,255.0,85.287,0.0
24946,254.999,79.898,0.0
24978,254.999,76.217,0.0
25013,255.0,75.776,0.0
25046,255.0,76.991,0.0
25079,254.999,78.525,0.0
25113,255.0,80.312,0.0
25146,255.0,81.799,0.0
25179,255.0,82.7,0.0
25213,255.0,82.829,0.0
25246,255.0,82.732,0.0
25279,255.0,82.669,0.0
25312,255.0,82.96,0.0
25346,255.0,83.462,0.0
25379,255.0,84.333,0.0
25412,255.0,85.433,0.0
25446,255.0,86.159,0.0
25478,255.0,87.165,0.0
25512,255.0,88.0,0.0
25546,255.0,88.538,0.0
25579,255.0,88.192,0.0
25612,255.0,84.224,0.0
25646,254.999,78.852,0.0
25679,254.999,76.551,0.0
25712,254.999,76.955,0.0
25745,254.999,77.906,0.0
25779,255.0,78.917,0.0
25812,255.0,80.147,0.0
25845,255.0,80.634,0.0
25879,255.0,80.822,0.0
25912,255.0,80.377,0.0
25945,255.0,80.316,0.0
25978,255.0,81.032,0.0
26012,255.0,82.551,0.0
26045,255.0,83.477,0.0
26079,255.0,84.341,0.0
26112,255.0,85.281,0.0
26145,255.0,86.166,0.0
26178,255.0,86.64,0.0
26212,255.0,87.564,0.0
26245,255.0,87.894,0.0
26277,255.0,84.622,0.0
26312,255.0,78.927,0.0
26345,254.999,76.163,0.0
26378,255.0,75.839,0.0
26412,255.0,77.437,0.0
26445,255.0,78.398,0.0
26478,255.0,79.423,0.0
26512,255.0,80.904,0.0
26545,255.0,81.512,0.0
26578,255.0,81.581,0.0
26611,255.0,81.753,0.0
26645,255.0,82.415,0.0
26678,255.0,83.012,0.0
26711,255.0,84.275,0.0
26745,255.0,85.869,0.0
26777,255.0,87.116,0.0
26811,255.0,88.02,0.0
26845,255.0,89.302,0.0
26878,255.0,90.15,0.0
26911,255.0,91.3,0.0
26945,255.0,92.074,0.0
26978,255.0,93.23,0.0
27011,255.0,91.221,0.0
27044,255.0,85.055,0.0
27078,255.0,80.075,0.0
27111,255.0,78.851,0.0
27144,255.0,79.732,0.0
27178,255.0,80.899,0.0
27211,255.0,82.247,0.0
27244,255.0,83.783,0.0
27277,255.0,85.764,0.0
27311,255.0,86.762,0.0
27344,255.0,86.589,0.0
27377,255.0,86.126,0.0
27411,255.0,86.311,0.0
27444,255.0,86.749,0.0
27477,255.0,87.852,0.0
27511,255.0,88.291,0.0
27544,255.0,88.934,0.0
27577,255.0,89.471,0.0
27611,255.0,89.775,0.0
27644,255.0,90.359,0.0
27677,255.0,91.001,0.0
27711,255.0,91.897,0.0
27744,255.0,92.014,0.0
27777,255.0,87.472,0.0
27810,255.0,81.196,0.0
27844,254.999,78.509,0.0
27877,255.0,78.934,0.0
27910,255.0,79.768,0.0
27944,255.0,81.188,0.0
27977,255.0,83.089,0.0
28010,255.0,84.09,0.0
28044,255.0,83.645,0.0
28077,255.0,82.776,0.0
28110,255.0,82.652,0.0
28144,255.0,82.357,0.0
28177,255.0,82.62,0.0
28210,255.0,83.832,0.0
28243,255.0,84.917,0.0
28277,255.0,85.742,0.0
28310,255.0,86.368,0.0
28343,255.0,86.962,0.0
28377,255.0,87.378,0.0
28410,255.0,88.227,0.0
28443,255.0,87.269,0.0
28477,254.999,81.893,0.0
28510,254.999,76.474,0.0
28543,254.999,74.456,0.0
28577,254.999,75.229,0.0
28610,255.0,76.89,0.0
28643,255.0,78.574,0.0
28676,255.0,80.516,0.0
28710,255.0,80.916,0.0
28743,254.999,80.875,0.0
28776,255.0,80.651,0.0
28810,255.0,81.077,0.0
28843,255.0,82.018,0.0
28876,255.0,83.258,0.0
28910,255.0,85.25,0.0
28943,255.0,87.094,0.0
28976,255.0,88.306,0.0
29010,255.0,89.693,0.0
29043,255.0,90.926,0.0
29076,255.0,91.896,0.0
29109,255.0,92.745,0.0
29143,255.0,90.796,0.0
29176,254.999,84.296,0.0
29209,254.999,78.06,0.0
29243,254.999,76.142,0.0
29276,254.999,77.187,0.0
29309,254.999,78.974,0.0
29343,254.999,80.332,0.0
29376,255.0,81.766,0.0
29409,255.0,82.953,0.0
29443,255.0,83.366,0.0
29476,255.0,83.398,0.0
29509,255.0,83.397,0.0
29542,255.0,83.985,0.0
29576,255.0,85.116,0.0
29609,255.0,86.274,0.0
29642,255.0,87.574,0.0
29676,255.0,88.688,0.0
29709,255.0,89.991,0.0
29742,255.0,90.999,0.0
29776,255.0,92.272,0.0
29809,255.0,91.464,0.0
29842,255.0,85.57,0.0
29875,255.0,78.803,0.0
29909,255.0,75.783,0.0
29942,255.0,76.244,0.0
29975,255.0,78.125,0.0
30009,255.0,79.922,0.0
30042,255.0,81.797,0.0
30075,255.0,83.23,0.0
30109,255.0,84.085,0.0
30142,255.0,84.336,0.0
30175,255.0,84.418,0.0
30209,255.0,84.923,0.0
30242,255.0,86.045,0.0
30275,255.0,87.323,0.0
30308,255.0,88.582,0.0
30342,255.0,89.704,0.0
30375,255.0,90.863,0.0
30408,255.0,92.086,0.0
30442,255.0,93.303,0.0
30475,255.0,92.892,0.0
30508,255.0,87.641,0.0
30542,255.0,80.747,0.0
30575,255.0,77.756,0.0
30608,255.0,78.332,0.0
30642,255.0,79.912,0.0
30675,255.0,81.09,0.0
30708,255.0,82.748,0.0
30741,255.0,83.83,0.0
30775,255.0,83.721,0.0
30808,255.0,82.871,0.0
30841,255.0,82.548,0.0
30875,255.0,82.77,0.0
30908,255.0,83.218,0.0
30940,255.0,84.41,0.0
30975,255.0,85.608,0.0
31008,255.0,86.441,0.0
31041,255.0,87.061,0.0
31075,255.0,87.907,0.0
31108,255.0,85.535,0.0
31141,255.0,78.978,0.0
31174,254.999,74.093,0.0
31208,254.999,73.497,0.0
31241,254.999,74.988,0.0
31274,255.0,76.778,0.0
31308,255.0,78.844,0.0
31341,255.0,80.731,0.0
31374,255.0,81.479,0.0
31408,255.0,81.762,0.0
31440,255.0,82.069,0.0
31474,255.0,82.25,0.0
31508,255.0,83.091,0.0
31541,255.0,84.488,0.0
31574,255.0,85.712,0.0
31607,255.0,86.716,0.0
31641,255.0,87.613,0.0
31674,255.0,88.899,0.0
31707,255.0,90.149,0.0
31741,255.0,91.066,0.0
31774,255.0,88.081,0.0
31807,254.999,80.915,0.0
31841,254.999,75.938,0.0
31874,254.999,75.013,0.0
31907,254.999,76.329,0.0
31940,255.0,77.91,0.0
31974,255.0,78.953,0.0
32007,255.0,80.5,0.0
32040,255.0,81.833,0.0
32074,255.0,82.286,0.0
32107,255.0,82.394,0.0
32140,255.0,82.735,0.0
32174,255.0,83.622,0.0
32207,255.0,84.912,0.0
32239,255.0,86.306,0.0
32274,255.0,87.49,0.0
32307,255.0,88.607,0.0
32340,255.0,89.661,0.0
32373,255.0,90.923,0.0
32407,255.0,91.556,0.0
32440,255.0,88.365,0.0
32473,255.0,81.555,0.0
32507,254.999,76.954,0.0
32540,255.0,76.29,0.0
32573,255.0,77.563,0.0
32607,255.0,78.986,0.0
32640,255.0,80.617,0.0
32673,255.0,82.539,0.0
32707,255.0,83.798,0.0
32739,255.0,84.365,0.0
32773,255.0,84.373,0.0
32806,255.0,84.695,0.0
32840,255.0,85.532,0.0
32873,255.0,86.906,0.0
32906,255.0,88.084,0.0
32940,255.0,89.356,0.0
32973,255.0,90.401,0.0
33006,255.0,91.464,0.0
33040,255.0,92.17,0.0
33073,255.0,92.998,0.0
33106,255.0,93.999,0.0
33140,255.0,92.584,0.0
33173,255.0,86.313,0.0
33206,255.0,80.198,0.0
33239,255.0,78.037,0.0
33273,255.0,78.83,0.0
33306,255.0,80.632,0.0
33339,255.0,82.343,0.0
33373,255.0,83.757,0.0
33406,255.0,84.539,0.0
33439,255.0,84.532,0.0
33473,255.0,83.722,0.0
33506,255.0,83.562,0.0
33539,255.0,83.536,0.0
33572,255.0,84.219,0.0
33606,255.0,85.251,0.0
33639,255.0,86.258,0.0
33672,255.0,86.86,0.0
33706,255.0,87.286,0.0
33739,255.0,87.861,0.0
33772,255.0,88.406,0.0
33806,255.0,87.919,0.0
33839,255.0,82.839,0.0
33872,255.0,76.472,0.0
33906,255.0,73.748,0.0
33939,255.0,74.346,0.0
33972,254.999,75.863,0.0
34005,255.0,77.331,0.0
34039,255.0,78.681,0.0
34072,255.0,79.682,0.0
34105,255.0,79.595,0.0
34139,255.0,79.044,0.0
34172,255.0,78.785,0.0
34205,255.0,79.314,0.0
34239,255.0,80.371,0.0
34272,255.0,81.285,0.0
34305,255.0,82.703,0.0
34339,255.0,83.781,0.0
34372,255.0,84.788,0.0
34405,255.0,85.771,0.0
34439,255.0,86.319,0.0
34472,255.0,86.776,0.0
34505,255.0,87.015,0.0
34538,255.0,86.455,0.0
34572,255.0,81.495,0.0
34605,254.999,74.492,0.0
34638,254.999,70.979,0.0
34672,254.999,70.909,0.0
34705,254.999,72.565,0.0
34738,254.999,73.887,0.0
34772,255.0,75.212,0.0
34805,254.999,76.545,0.0
34838,255.0,77.341,0.0
34871,255.0,77.5,0.0
34905,255.0,77.449,0.0
34938,255.0,78.084,0.0
34971,255.0,79.17,0.0
35005,255.0,80.652,0.0
35038,255.0,82.112,0.0
35071,254.999,83.657,0.0
35105,255.0,85.257,0.0
35138,255.0,88.02,0.0
35171,255.0,89.136,0.0
35205,255.0,89.87,0.0
35238,255.0,90.798,0.0
35271,255.0,91.079,0.0
35304,255.0,86.85,0.0
35338,255.0,79.525,0.0
35371,255.0,75.484,0.0
35404,255.0,75.166,0.0
35438,255.0,76.466,0.0
35471,255.0,78.301,0.0
35504,255.0,79.71,0.0
35538,255.0,80.81,0.0
35571,255.0,81.696,0.0
35603,255.0,81.833,0.0
35637,255.0,81.394,0.0
35671,255.0,81.467,0.0
35704,255.0,82.066,0.0
35737,255.0,82.931,0.0
35771,255.0,83.672,0.0
35804,255.0,84.719,0.0
35837,255.0,85.672,0.0
35871,255.0,86.227,0.0
35904,255.0,86.496,0.0
35937,255.0,87.239,0.0
35971,255.0,87.978,0.0
36004,255.0,89.226,0.0
36037,255.0,88.508,0.0
36070,254.999,83.127,0.0
36103,255.0,76.908,0.0
36137,255.0,74.47,0.0
36170,255.0,75.146,0.0
36204,255.0,77.091,0.0
36237,255.0,78.937,0.0
36270,255.0,80.406,0.0
36304,255.0,81.14,0.0
36337,255.0,81.116,0.0
36370,255.0,80.439,0.0
36404,255.0,80.066,0.0
36437,255.0,80.496,0.0
36470,255.0,81.518,0.0
36503,255.0,82.849,0.0
36537,255.0,84.131,0.0
36570,255.0,85.291,0.0
36603,255.0,86.211,0.0
36637,255.0,87.07,0.0
36670,255.0,87.749,0.0
36703,255.0,88.233,0.0
36737,255.0,88.633,0.0
36770,255.0,85.906,0.0
36803,254.999,78.939,0.0
36837,254.999,73.843,0.0
36870,255.0,72.571,0.0
36902,255.0,73.863,0.0
36936,255.0,75.459,0.0
36970,255.0,77.002,0.0
37003,255.0,78.449,0.0
37036,255.0,79.02,0.0
37070,254.999,78.934,0.0
37103,255.0,78.813,0.0
37136,255.0,79.03,0.0
37170,255.0,79.692,0.0
37203,255.0,80.758,0.0
37236,255.0,81.937,0.0
37270,255.0,83.279,0.0
37303,255.0,84.373,0.0
37336,255.0,85.379,0.0
37369,255.0,86.238,0.0
37402,255.0,86.874,0.0
37436,255.0,87.391,0.0
37469,255.0,86.64,0.0
37503,255.0,81.358,0.0
37536,254.999,73.978,0.0
37569,254.999,70.321,0.0
37603,254.999,70.072,0.0
37636,254.999,71.446,0.0
37669,254.999,73.327,0.0
37702,254.999,74.895,0.0
37736,254.999,75.998,0.0
37769,255.0,76.687,0.0
37803,255.0,76.198,0.0
37836,255.0,76.032,0.0
37869,255.0,76.347,0.0
37902,255.0,76.946,0.0
37936,255.0,78.326,0.0
37969,255.0,79.834,0.0
38002,255.0,81.049,0.0
38036,255.0,82.275,0.0
38069,255.0,83.109,0.0
38102,255.0,83.839,0.0
38135,255.0,84.473,0.0
38169,255.0,84.927,0.0
38202,255.0,83.517,0.0
38235,254.999,77.437,0.0
38269,254.999,71.104,0.0
38302,254.999,68.702,0.0
38335,254.999,69.679,0.0
38369,254.999,71.551,0.0
38402,254.999,73.283,0.0
38435,254.999,74.569,0.0
38469,254.999,75.812,0.0
38502,254.999,76.281,0.0
38535,254.999,75.916,0.0
38568,254.999,75.243,0.0
38602,254.999,75.279,0.0
38635,254.999,76.277,0.0
38668,255.0,77.188,0.0
38702,254.999,77.636,0.0
38735,255.0,77.622,0.0
38768,255.0,77.591,0.0
38802,254.999,78.004,0.0
38835,254.999,78.931,0.0
38868,255.0,79.974,0.0
38902,255.0,80.457,0.0
38935,254.999,77.136,0.0
38968,254.998,70.756,0.0
39001,254.996,66.663,0.0
39035,254.997,66.315,0.0
39068,254.998,67.717,0.0
39101,254.999,69.073,0.0
39135,254.999,70.484,0.0
39168,254.999,71.357,0.0
39201,254.999,71.272,0.0
39235,254.999,70.549,0.0
39268,254.999,70.177,0.0
39301,254.999,70.451,0.0
39335,254.999,71.064,0.0
39368,254.999,72.095,0.0
39401,254.999,73.125,0.0
39434,254.999,73.876,0.0
39468,254.999,74.646,0.0
39501,254.999,75.524,0.0
39534,254.999,76.211,0.0
39568,254.999,76.901,0.0
39601,254.998,73.779,0.0
39634,254.993,67.212,0.0
39668,254.99,62.893,0.0
39701,254.991,61.912,0.0
39734,254.994,63.222,0.0
39768,254.995,64.613,0.0
39801,254.995,66.021,0.0
39834,254.996,67.232,0.0
39867,254.996,67.688,0.0
39901,254.996,67.478,0.0
39934,254.996,67.395,0.0
39967,254.997,67.882,0.0
40001,254.998,68.791,0.0
40034,254.998,69.587,0.0
40067,254.998,71.108,0.0
40101,254.999,72.382,0.0
40134,254.999,73.785,0.0
40167,254.999,74.962,0.0
40200,254.999,75.98,0.0
40234,254.999,76.538,0.0
40267,254.998,74.235,0.0
40300,254.993,67.665,0.0
40334,254.985,62.209,0.0
40367,254.985,60.352,0.0
40400,254.988,60.905,0.0
40434,254.991,62.52,0.0
40467,254.993,63.986,0.0
40500,254.993,65.183,0.0
40534,254.995,66.257,0.0
40567,254.995,67.058,0.0
40600,254.996,67.203,0.0
40633,254.996,67.175,0.0
40667,254.996,67.694,0.0
40700,254.998,68.983,0.0
40733,254.998,70.397,0.0
40767,254.999,71.321,0.0
40800,254.999,72.505,0.0
40833,254.999,73.998,0.0
40867,254.999,75.263,0.0
40900,254.999,75.852,0.0
40933,254.999,76.858,0.0
40967,254.999,76.232,0.0
41000,254.995,70.696,0.0
41033,254.99,64.548,0.0
41065,254.988,61.997,0.0
41100,254.99,62.616,0.0
41133,254.992,64.074,0.0
41166,254.994,65.421,0.0
41200,254.996,66.711,0.0
41233,254.996,67.968,0.0
41266,254.995,68.101,0.0
41300,254.995,67.578,0.0
41333,254.995,67.372,0.0
41366,254.996,67.469,0.0
41400,254.997,68.11,0.0
41433,254.998,69.186,0.0
41466,254.998,70.411,0.0
41499,254.998,71.211,0.0
41533,254.999,72.131,0.0
41565,254.999,73.053,0.0
41599,254.999,74.056,0.0
41633,254.999,74.41,0.0
41666,254.998,74.493,0.0
41699,254.995,70.285,0.0
41733,254.985,63.965,0.0
41766,254.982,60.558,0.0
41799,254.984,60.456,0.0
41833,254.989,61.898,0.0
41866,254.99,63.597,0.0
41899,254.994,65.548,0.0
41932,254.994,66.802,0.0
41966,254.993,66.587,0.0
41999,254.993,66.239,0.0
42032,254.994,66.012,0.0
42065,254.994,66.208,0.0
42099,254.996,67.183,0.0
42132,254.996,68.514,0.0
42166,254.997,69.7,0.0
42199,254.998,70.889,0.0
42232,254.999,71.74,0.0
42265,254.999,72.449,0.0
42299,254.998,72.925,0.0
42332,254.999,73.972,0.0
42364,254.996,72.926,0.0
42399,254.988,66.783,0.0
42432,254.976,60.85,0.0
42465,254.976,58.484,0.0
42499,254.979,59.074,0.0
42532,254.983,60.39,0.0
42565,254.987,61.803,0.0
42599,254.99,63.203,0.0
42632,254.991,64.262,0.0
42665,254.99,64.551,0.0
42698,254.99,64.575,0.0
42732,254.991,64.529,0.0
42765,254.992,65.167,0.0
42798,254.994,66.232,0.0
42832,254.995,67.396,0.0
42864,254.996,68.372,0.0
42898,254.997,69.688,0.0
42932,254.997,70.797,0.0
42965,254.998,71.806,0.0
42998,254.999,72.699,0.0
43032,254.998,73.419,0.0
43065,254.996,72.768,0.0
43098,254.989,67.344,0.0
43131,254.975,60.77,0.0
43165,254.97,58.061,0.0
43198,254.976,57.909,0.0
43231,254.98,59.461,0.0
43265,254.984,61.083,0.0
43298,254.989,62.447,0.0
43331,254.99,63.665,0.0
43364,254.99,64.36,0.0
43398,254.991,64.794,0.0
43431,254.99,64.638,0.0
43465,254.993,64.799,0.0
43498,254.993,65.735,0.0
43531,254.995,66.965,0.0
43564,254.996,67.916,0.0
43598,254.997,68.797,0.0
43631,254.996,69.582,0.0
43664,254.997,70.538,0.0
43698,254.998,71.305,0.0
43731,254.998,72.02,0.0
43764,254.998,72.68,0.0
43798,254.997,72.628,0.0
43831,254.989,67.904,0.0
43864,254.977,61.17,0.0
43898,254.973,57.883,0.0
43931,254.975,57.956,0.0
43964,254.981,59.321,0.0
43997,254.985,60.894,0.0
44031,254.988,62.337,0.0
44064,254.991,63.877,0.0
44097,254.991,64.999,0.0
44131,254.991,65.455,0.0
44164,254.992,65.16,0.0
44197,254.992,65.098,0.0
44231,254.994,65.901,0.0
44264,254.995,67.191,0.0
44297,254.996,68.264,0.0
44330,254.996,69.281,0.0
44364,254.997,70.564,0.0
44397,254.998,71.625,0.0
44431,254.998,72.225,0.0
44464,254.998,72.5,0.0
44497,254.998,73.193,0.0
44530,254.998,73.518,0.0
44564,254.997,73.375,0.0
44597,254.991,68.943,0.0
44630,254.979,62.368,0.0
44664,254.973,58.562,0.0
44697,254.976,58.394,0.0
44730,254.98,59.975,0.0
44763,254.986,61.876,0.0
44797,254.99,63.656,0.0
44830,254.992,64.962,0.0
44863,254.992,65.33,0.0
44897,254.992,65.323,0.0
44930,254.992,65.181,0.0
44963,254.992,65.255,0.0
44997,254.992,65.871,0.0
45030,254.995,66.868,0.0
45063,254.995,67.982,0.0
45097,254.996,69.129,0.0
45130,254.997,70.196,0.0
45163,254.997,70.883,0.0
45196,254.997,71.428,0.0
45230,254.998,71.765,0.0
45263,254.998,72.338,0.0
45296,254.994,71.058,0.0
45330,254.983,65.105,0.0
45363,254.966,59.101,0.0
45396,254.966,56.936,0.0
45430,254.97,57.336,0.0
45463,254.98,59.085,0.0
45496,254.985,61.612,0.0
45530,254.988,63.707,0.0
45563,254.988,64.372,0.0
45596,254.987,63.879,0.0
45629,254.985,63.26,0.0
45663,254.987,62.898,0.0
45696,254.987,63.247,0.0
45728,254.989,63.848,0.0
45763,254.99,64.776,0.0
45796,254.993,65.783,0.0
45829,254.994,67.007,0.0
45863,254.994,68.091,0.0
45896,254.995,69.043,0.0
45929,254.996,69.827,0.0
45962,254.997,70.577,0.0
45996,254.994,70.559,0.0
46029,254.983,66.426,0.0
46062,254.964,59.317,0.0
46096,254.954,55.264,0.0
46129,254.959,54.906,0.0
46162,254.963,55.869,0.0
46196,254.97,57.625,0.0
46228,254.975,59.352,0.0
46262,254.983,61.241,0.0
46296,254.985,62.02,0.0
46329,254.985,62.357,0.0
46362,254.985,62.502,0.0
46395,254.986,62.516,0.0
46429,254.988,63.119,0.0
46462,254.991,64.514,0.0
46495,254.992,65.858,0.0
46529,254.995,67.301,0.0
46562,254.995,68.553,0.0
46595,254.996,69.432,0.0
46629,254.997,70.152,0.0
46662,254.997,70.88,0.0
46695,254.997,71.186,0.0
46728,254.987,67.556,0.0
46762,254.969,60.374,0.0
46795,254.957,55.718,0.0
46828,254.96,54.839,0.0
46862,254.961,55.652,0.0
46895,254.967,57.386,0.0
46928,254.97,58.382,0.0
46962,254.979,59.98,0.0
46995,254.98,60.987,0.0
47027,254.981,61.062,0.0
47062,254.978,60.65,0.0
47095,254.98,60.237,0.0
47128,254.982,60.656,0.0
47162,254.985,61.8,0.0
47195,254.986,62.939,0.0
47228,254.989,63.844,0.0
47261,254.991,64.975,0.0
47295,254.991,65.896,0.0
47328,254.994,66.773,0.0
47361,254.994,67.543,0.0
47395,254.993,68.005,0.0
47428,254.984,65.66,0.0
47461,254.963,59.269,0.0
47495,254.945,54.438,0.0
47527,254.951,53.538,0.0
47561,254.955,54.569,0.0
47595,254.962,56.2,0.0
47628,254.967,57.755,0.0
47661,254.972,59.074,0.0
47694,254.977,59.904,0.0
47728,254.974,59.64,0.0
47761,254.974,58.983,0.0
47794,254.972,58.524,0.0
47828,254.976,58.925,0.0
47861,254.977,59.719,0.0
47894,254.979,60.582,0.0
47928,254.983,61.146,0.0
47961,254.983,62.038,0.0
47994,254.983,62.658,0.0
48027,254.986,62.989,0.0
48061,254.985,63.67,0.0
48094,254.971,62.072,0.0
48127,254.932,55.706,0.0
48161,254.903,50.441,0.0
48194,254.886,48.249,0.0
48227,254.903,49.041,0.0
48261,254.915,50.578,0.0
48294,254.925,52.098,0.0
48327,254.939,53.454,0.0
48361,254.939,54.341,0.0
48394,254.936,54.206,0.0
48427,254.935,53.971,0.0
48460,254.937,54.177,0.0
48494,254.937,54.409,0.0
48527,254.944,54.929,0.0
48560,254.953,56.148,0.0
48594,254.957,57.348,0.0
48627,254.965,58.594,0.0
48660,254.976,60.356,0.0
48694,254.978,61.443,0.0
48727,254.979,62.282,0.0
48760,254.978,62.742,0.0
48794,254.953,59.55,0.0
48827,254.914,53.378,0.0
48860,254.898,49.709,0.0
48893,254.894,48.878,0.0
48927,254.91,49.988,0.0
48960,254.925,51.586,0.0
48993,254.935,52.953,0.0
49027,254.943,54.326,0.0
49060,254.946,55.132,0.0
49093,254.949,55.609,0.0
49127,254.953,55.915,0.0
49160,254.956,56.206,0.0
49193,254.963,56.952,0.0
49227,254.964,58.057,0.0
49260,254.978,59.922,0.0
49293,254.981,61.473,0.0
49326,254.984,62.826,0.0
49360,254.985,63.564,0.0
49393,254.987,64.36,0.0
49426,254.989,65.202,0.0
49460,254.991,65.897,0.0
49493,254.988,66.221,0.0
49526,254.969,62.502,0.0
49560,254.941,56.073,0.0
49593,254.928,52.451,0.0
49626,254.927,51.733,0.0
49660,254.933,52.684,0.0
49693,254.938,53.692,0.0
49726,254.95,54.866,0.0
49759,254.954,56.331,0.0
49793,254.956,57.061,0.0
49826,254.955,57.002,0.0
49859,254.962,57.284,0.0
49893,254.959,57.191,0.0
49926,254.966,57.953,0.0
49959,254.969,58.637,0.0
49993,254.974,59.726,0.0
50026,254.977,60.742,0.0
50059,254.975,61.194,0.0
50093,254.977,61.359,0.0
50126,254.976,61.631,0.0
50159,254.976,62.019,0.0
50192,254.978,62.244,0.0
50226,254.978,62.796,0.0
50259,254.967,61.74,0.0
50292,254.93,56.563,0.0
50326,254.898,51.293,0.0
50359,254.887,49.147,0.0
50392,254.9,50.053,0.0
50426,254.915,51.431,0.0
50459,254.931,53.291,0.0
50492,254.938,54.954,0.0
50526,254.942,55.865,0.0
50559,254.944,56.089,0.0
50592,254.945,56.225,0.0
50625,254.945,56.242,0.0
50659,254.951,56.719,0.0
50692,254.954,57.908,0.0
50725,254.963,59.044,0.0
50759,254.972,60.717,0.0
50792,254.975,61.862,0.0
50825,254.978,62.651,0.0
50859,254.98,63.42,0.0
50892,254.983,64.028,0.0
50925,254.984,64.702,0.0
50958,254.985,65.401,0.0
50992,254.988,66.515,0.0
51025,254.987,67.356,0.0
51058,254.971,64.539,0.0
51092,254.941,58.122,0.0
51125,254.924,53.657,0.0
51158,254.927,52.757,0.0
51192,254.933,53.747,0.0
51225,254.944,55.307,0.0
51258,254.951,56.741,0.0
51292,254.959,58.022,0.0
51325,254.961,58.837,0.0
51358,254.967,59.594,0.0
51391,254.968,59.527,0.0
51425,254.969,59.485,0.0
51458,254.969,59.815,0.0
51491,254.975,60.615,0.0
51525,254.979,61.733,0.0
51558,254.983,63.229,0.0
51591,254.986,64.464,0.0
51625,254.988,65.532,0.0
51658,254.99,66.549,0.0
51690,254.991,67.183,0.0
51725,254.991,68.006,0.0
51758,254.993,68.628,0.0
51791,254.994,69.714,0.0
51824,254.991,70.026,0.0
51858,254.977,65.485,0.0
51891,254.951,58.542,0.0
51924,254.943,54.912,0.0
51958,254.95,54.868,0.0
51991,254.952,55.843,0.0
52024,254.961,57.354,0.0
52058,254.966,58.833,0.0
52091,254.974,60.275,0.0
52124,254.974,61.118,0.0
52158,254.975,61.045,0.0
52190,254.973,60.513,0.0
52224,254.975,60.453,0.0
52257,254.978,61.095,0.0
52291,254.978,61.788,0.0
52324,254.983,62.59,0.0
52357,254.983,63.42,0.0
52391,254.985,63.833,0.0
52424,254.987,64.628,0.0
52457,254.988,65.439,0.0
52491,254.989,65.886,0.0
52524,254.99,66.102,0.0
52557,254.991,67.139,0.0
52590,254.983,66.37,0.0
52624,254.958,60.594,0.0
52657,254.931,54.525,0.0
52690,254.928,52.256,0.0
52724,254.929,52.388,0.0
52757,254.94,53.758,0.0
52790,254.951,55.801,0.0
52824,254.956,57.26,0.0
52857,254.954,57.706,0.0
52890,254.954,57.092,0.0
52924,254.951,56.216,0.0
52957,254.942,55.409,0.0
52989,254.945,55.517,0.0
53023,254.951,56.108,0.0
53057,254.958,57.441,0.0
53090,254.963,58.859,0.0
53123,254.97,60.159,0.0
53157,254.975,60.827,0.0
53190,254.978,61.854,0.0
53223,254.979,62.501,0.0
53257,254.978,63.195,0.0
53290,254.968,62.747,0.0
53323,254.931,57.737,0.0
53357,254.897,51.976,0.0
53390,254.875,48.999,0.0
53423,254.89,49.161,0.0
53456,254.904,50.703,0.0
53489,254.91,51.75,0.0
53523,254.919,52.773,0.0
53556,254.925,53.693,0.0
53590,254.925,53.952,0.0
53623,254.923,53.845,0.0
53656,254.922,53.657,0.0
53690,254.924,53.671,0.0
53723,254.932,54.449,0.0
53756,254.94,55.622,0.0
53790,254.95,56.888,0.0
53823,254.955,58.023,0.0
53856,254.958,59.014,0.0
53889,254.966,59.977,0.0
53923,254.97,60.937,0.0
53956,254.973,61.82,0.0
53989,254.959,61.295,0.0
54023,254.916,56.337,0.0
54056,254.875,50.604,0.0
54089,254.851,47.551,0.0
54123,254.867,48.093,0.0
54156,254.875,49.377,0.0
54189,254.88,49.965,0.0
54223,254.885,50.687,0.0
54256,254.891,51.367,0.0
54289,254.893,51.924,0.0
54322,254.897,52.155,0.0
54356,254.899,52.004,0.0
54389,254.906,52.355,0.0
54422,254.914,53.161,0.0
54456,254.92,53.999,0.0
54489,254.929,55.123,0.0
54522,254.935,55.986,0.0
54556,254.941,56.799,0.0
54589,254.945,57.604,0.0
54622,254.95,58.542,0.0
54655,254.959,59.707,0.0
54689,254.96,60.788,0.0
54722,254.919,57.249,0.0
54755,254.874,51.396,0.0
54789,254.836,47.567,0.0
54822,254.845,47.219,0.0
54855,254.862,48.375,0.0
54889,254.876,49.815,0.0
54922,254.89,50.887,0.0
54955,254.899,51.877,0.0
54989,254.903,52.671,0.0
55022,254.899,52.731,0.0
55055,254.901,52.564,0.0
55088,254.905,52.564,0.0
55122,254.912,53.261,0.0
55155,254.922,54.434,0.0
55188,254.929,55.487,0.0
55222,254.937,56.376,0.0
55255,254.942,57.302,0.0
55288,254.949,58.207,0.0
55322,254.952,59.167,0.0
55355,254.965,60.477,0.0
55388,254.964,61.144,0.0
55422,254.939,59.53,0.0
55455,254.889,54.002,0.0
55488,254.848,48.943,0.0
55521,254.832,47.09,0.0
55555,254.851,47.772,0.0
55588,254.869,49.186,0.0
55621,254.884,50.489,0.0
55655,254.896,51.697,0.0
55688,254.893,52.119,0.0
55721,254.888,51.708,0.0
55755,254.889,51.387,0.0
55788,254.894,51.471,0.0
55821,254.9,51.884,0.0
55855,254.912,52.949,0.0
55888,254.92,54.144,0.0
55921,254.925,55.006,0.0
55955,254.931,55.866,0.0
55988,254.937,56.457,0.0
56021,254.943,57.339,0.0
56054,254.945,57.862,0.0
56088,254.948,58.706,0.0
56121,254.923,57.394,0.0
56154,254.872,52.252,0.0
56188,254.814,46.808,0.0
56221,254.81,45.301,0.0
56254,254.831,45.82,0.0
56287,254.849,47.165,0.0
56321,254.865,48.502,0.0
56353,254.882,49.941,0.0
56387,254.885,50.824,0.0
56421,254.883,51.026,0.0
56454,254.886,51.001,0.0
56487,254.891,51.298,0.0
56521,254.896,51.734,0.0
56554,254.907,52.436,0.0
56587,254.918,53.619,0.0
56621,254.928,54.769,0.0
56654,254.937,55.947,0.0
56687,254.938,56.603,0.0
56720,254.945,57.374,0.0
56754,254.95,58.33,0.0
56787,254.956,59.254,0.0
56820,254.95,59.711,0.0
56853,254.902,55.474,0.0
56887,254.853,49.687,0.0
56920,254.814,46.261,0.0
56954,254.823,45.783,0.0
56987,254.834,46.603,0.0
57020,254.845,47.419,0.0
57054,254.855,48.26,0.0
57087,254.868,49.175,0.0
57120,254.873,49.989,0.0
57152,254.878,50.496,0.0
57187,254.879,50.511,0.0
57220,254.88,50.311,0.0
57253,254.884,50.518,0.0
57287,254.889,51.187,0.0
57320,254.903,52.116,0.0
57353,254.914,53.192,0.0
57387,254.92,54.128,0.0
57420,254.925,54.905,0.0
57453,254.931,55.639,0.0
57487,254.936,56.469,0.0
57520,254.942,57.235,0.0
57553,254.938,57.743,0.0
57586,254.887,54.595,0.0
57620,254.831,48.744,0.0
57652,254.805,45.637,0.0
57686,254.813,45.255,0.0
57720,254.829,46.15,0.0
57753,254.85,47.495,0.0
57786,254.861,48.709,0.0
57820,254.87,49.709,0.0
57853,254.872,50.115,0.0
57886,254.874,50.32,0.0
57920,254.878,50.337,0.0
57953,254.875,50.182,0.0
57986,254.874,50.068,0.0
58019,254.882,50.666,0.0
58053,254.894,51.493,0.0
58086,254.901,52.384,0.0
58119,254.903,52.849,0.0
58152,254.911,53.688,0.0
58186,254.915,54.226,0.0
58219,254.918,54.66,0.0
58253,254.924,55.21,0.0
58286,254.919,55.789,0.0
58319,254.858,52.633,0.0
58352,254.791,46.904,0.0
58386,254.771,43.897,0.0
58419,254.784,43.666,0.0
58452,254.811,44.997,0.0
58486,254.83,46.778,0.0
58519,254.85,48.159,0.0
58552,254.86,49.019,0.0
58586,254.861,49.392,0.0
58619,254.856,49.208,0.0
58652,254.856,49.027,0.0
58686,254.865,49.359,0.0
58719,254.868,49.949,0.0
58752,254.878,50.567,0.0
58785,254.892,51.63,0.0
58819,254.896,52.679,0.0
58852,254.905,53.222,0.0
58885,254.911,53.824,0.0
58919,254.918,54.843,0.0
58952,254.916,55.174,0.0
58985,254.919,55.212,0.0
59019,254.916,55.686,0.0
59052,254.864,53.204,0.0
59085,254.793,47.45,0.0
59119,254.761,43.745,0.0
59152,254.771,43.437,0.0
59185,254.8,44.442,0.0
59219,254.819,45.94,0.0
59252,254.834,47.151,0.0
59285,254.844,48.148,0.0
59318,254.846,48.68,0.0
59352,254.839,48.608,0.0
59385,254.843,48.397,0.0
59418,254.843,48.14,0.0
59452,254.854,48.568,0.0
59485,254.864,49.553,0.0
59518,254.876,50.428,0.0
59552,254.888,51.536,0.0
59585,254.896,52.557,0.0
59618,254.904,53.154,0.0
59651,254.909,53.849,0.0
59685,254.911,54.279,0.0
59718,254.916,54.865,0.0
59751,254.917,55.227,0.0
59785,254.896,54.78,0.0
59818,254.821,50.465,0.0
59851,254.756,45.054,0.0
59885,254.737,42.479,0.0
59918,254.751,42.34,0.0
59951,254.785,43.684,0.0
59985,254.796,45.218,0.0
60018,254.809,45.975,0.0
60051,254.829,47.014,0.0
60085,254.823,47.678,0.0
60118,254.818,47.538,0.0
60151,254.82,47.291,0.0
60184,254.826,47.15,0.0
60218,254.831,47.674,0.0
60251,254.844,48.356,0.0
60284,254.857,49.341,0.0
60318,254.868,50.076,0.0
60351,254.874,50.837,0.0
60384,254.883,51.701,0.0
60418,254.89,52.228,0.0
60451,254.892,52.705,0.0
60484,254.905,53.316,0.0
60517,254.898,54.058,0.0
60551,254.848,52.164,0.0
60584,254.773,46.994,0.0
60617,254.731,42.994,0.0
60651,254.735,42.072,0.0
60684,254.761,42.867,0.0
60717,254.791,44.599,0.0
60751,254.815,46.259,0.0
60784,254.823,47.31,0.0
60817,254.827,47.473,0.0
60851,254.823,47.613,0.0
60884,254.823,47.234,0.0
60917,254.828,47.251,0.0
60951,254.837,47.722,0.0
60984,254.848,48.539,0.0
61017,254.861,49.579,0.0
61050,254.87,50.266,0.0
61084,254.879,51.133,0.0
61117,254.886,51.862,0.0
61150,254.887,52.157,0.0
61184,254.897,52.738,0.0
61217,254.9,53.707,0.0
61250,254.861,52.739,0.0
61283,254.784,47.875,0.0
61317,254.728,43.229,0.0
61350,254.724,41.51,0.0
61383,254.744,42.143,0.0
61417,254.767,43.315,0.0
61450,254.791,44.78,0.0
61483,254.807,45.839,0.0
61517,254.81,46.394,0.0
61583,254.803,46.179,0.0
61617,254.808,46.179,0.0
61650,254.816,46.532,0.0
61683,254.832,47.324,0.0
61717,254.843,48.347,0.0
61750,254.85,49.133,0.0
61783,254.86,49.901,0.0
61815,254.875,50.864,0.0
61850,254.882,51.691,0.0
61883,254.886,52.259,0.0
61916,254.894,52.886,0.0
61950,254.875,52.878,0.0
61983,254.797,49.151,0.0
62016,254.719,43.668,0.0
62050,254.69,40.812,0.0
62083,254.704,40.586,0.0
62116,254.728,41.391,0.0
62149,254.743,42.352,0.0
62183,254.757,43.184,0.0
62216,254.775,44.102,0.0
62249,254.778,44.761,0.0
62283,254.783,45.06,0.0
62315,254.784,45.243,0.0
62349,254.783,45.075,0.0
62383,254.797,45.356,0.0
62416,254.813,46.531,0.0
62449,254.824,47.352,0.0
62483,254.837,48.152,0.0
62516,254.853,49.209,0.0
62549,254.86,50.023,0.0
62582,254.866,50.509,0.0
62616,254.879,51.39,0.0
62649,254.882,52.37,0.0
62682,254.843,51.428,0.0
62716,254.755,46.631,0.0
62749,254.686,41.769,0.0
62782,254.679,39.978,0.0
62815,254.708,40.34,0.0
62849,254.727,41.716,0.0
62882,254.744,42.658,0.0
62915,254.766,43.599,0.0
62949,254.775,44.498,0.0
62982,254.777,44.802,0.0
63015,254.776,44.882,0.0
63049,254.773,44.631,0.0
63082,254.783,44.56,0.0
63114,254.796,45.314,0.0
63149,254.808,46.12,0.0
63182,254.821,46.887,0.0
63215,254.83,47.745,0.0
63249,254.838,48.219,0.0
63282,254.85,48.934,0.0
63315,254.856,49.63,0.0
63348,254.86,50.052,0.0
63382,254.856,50.853,0.0
63415,254.799,48.985,0.0
63448,254.706,43.899,0.0
63482,254.662,40.209,0.0
63515,254.671,39.735,0.0
63548,254.693,40.655,0.0
63582,254.711,41.539,0.0
63614,254.735,42.563,0.0
63648,254.742,43.399,0.0
63682,254.744,43.223,0.0
63715,254.75,43.308,0.0
63748,254.74,43.104,0.0
63781,254.749,42.939,0.0
63815,254.764,43.585,0.0
63848,254.777,44.443,0.0
63881,254.793,45.386,0.0
63915,254.809,46.19,0.0
63948,254.814,47.008,0.0
63981,254.825,47.801,0.0
64015,254.839,48.472,0.0
64048,254.84,48.885,0.0
64081,254.844,49.587,0.0
64114,254.784,48.271,0.0
64148,254.691,43.184,0.0
64181,254.637,39.298,0.0
64214,254.636,38.331,0.0
64248,254.654,38.818,0.0
64281,254.668,39.461,0.0
64314,254.686,40.056,0.0
64348,254.708,41.096,0.0
64381,254.715,41.721,0.0
64414,254.714,41.839,0.0
64448,254.722,42.078,0.0
64481,254.727,42.126,0.0
64514,254.735,42.393,0.0
64548,254.744,43.036,0.0
64581,254.761,43.957,0.0
64614,254.77,44.646,0.0
64647,254.782,45.391,0.0
64681,254.79,46.035,0.0
64714,254.797,46.468,0.0
64747,254.803,46.91,0.0
64781,254.813,47.4,0.0
64814,254.801,47.712,0.0
64847,254.721,45.479,0.0
64881,254.621,40.471,0.0
64914,254.572,37.237,0.0
64947,254.569,36.324,0.0
64980,254.6,36.937,0.0
65014,254.62,38.012,0.0
65047,254.647,38.897,0.0
65080,254.667,39.646,0.0
65114,254.685,40.457,0.0
65147,254.686,41.03,0.0
65180,254.697,41.332,0.0
65214,254.705,41.574,0.0
65247,254.721,41.845,0.0
65280,254.744,42.831,0.0
65314,254.769,44.005,0.0
65347,254.791,45.178,0.0
65380,254.805,46.249,0.0
65413,254.823,47.276,0.0
65447,254.825,47.776,0.0
65480,254.836,48.331,0.0
65513,254.847,49.213,0.0
65547,254.855,49.837,0.0
65580,254.861,50.498,0.0
65613,254.821,49.709,0.0
65647,254.721,45.11,0.0
65680,254.657,40.285,0.0
65713,254.655,38.866,0.0
65747,254.675,39.261,0.0
65780,254.693,40.243,0.0
65813,254.715,41.361,0.0
65846,254.733,42.312,0.0
65880,254.732,42.81,0.0
65913,254.728,42.727,0.0
65946,254.734,42.65,0.0
65980,254.73,42.576,0.0
66013,254.739,42.48,0.0
66046,254.749,43.078,0.0
66080,254.764,44.008,0.0
66113,254.78,44.708,0.0
66146,254.793,45.476,0.0
66180,254.797,46.203,0.0
66213,254.808,46.695,0.0
66246,254.813,47.327,0.0
66279,254.811,47.428,0.0
66313,254.815,47.594,0.0
66346,254.819,48.3,0.0
66379,254.762,47.156,0.0
66413,254.655,42.295,0.0
66446,254.594,38.242,0.0
66478,254.602,37.463,0.0
66513,254.626,37.994,0.0
66546,254.658,39.267,0.0
66579,254.689,40.702,0.0
66613,254.703,41.663,0.0
66646,254.699,41.867,0.0
66679,254.693,41.689,0.0
66712,254.696,41.667,0.0
66746,254.701,41.629,0.0
66779,254.709,42.046,0.0
66812,254.724,42.743,0.0
66846,254.742,43.506,0.0
66879,254.757,44.447,0.0
66912,254.769,45.233,0.0
66946,254.771,45.734,0.0
66978,254.786,46.11,0.0
67012,254.797,47.067,0.0
67045,254.806,47.544,0.0
67079,254.805,48.01,0.0
67112,254.743,46.652,0.0
67145,254.65,42.137,0.0
67179,254.589,38.351,0.0
67212,254.587,37.234,0.0
67245,254.622,37.997,0.0
67279,254.652,39.396,0.0
67312,254.672,40.429,0.0
67345,254.699,41.527,0.0
67379,254.704,42.304,0.0
67412,254.706,42.401,0.0
67445,254.704,42.365,0.0
67478,254.707,42.17,0.0
67512,254.713,42.211,0.0
67545,254.736,42.948,0.0
67578,254.766,44.58,0.0
67612,254.784,45.795,0.0
67645,254.796,46.393,0.0
67678,254.805,46.717,0.0
67712,254.812,47.31,0.0
67745,254.814,47.74,0.0
67777,254.825,48.244,0.0
67812,254.836,49.121,0.0
67845,254.813,49.092,0.0
67878,254.729,45.846,0.0
67911,254.634,40.61,0.0
67945,254.602,37.916,0.0
67978,254.63,37.98,0.0
68011,254.672,39.623,0.0
68045,254.697,41.077,0.0
68078,254.732,42.621,0.0
68111,254.764,44.441,0.0
68145,254.782,45.879,0.0
68178,254.793,46.657,0.0
68211,254.8,47.213,0.0
68245,254.812,47.646,0.0
68277,254.824,48.16,0.0
68311,254.833,48.673,0.0
68344,254.845,49.137,0.0
68378,254.848,49.49,0.0
68411,254.85,49.533,0.0
68444,254.85,49.707,0.0
68478,254.857,49.889,0.0
68511,254.861,50.382,0.0
68544,254.872,50.904,0.0
68578,254.877,51.537,0.0
68611,254.866,51.768,0.0
68644,254.794,48.933,0.0
68677,254.714,43.7,0.0
68711,254.683,40.561,0.0
68744,254.709,40.492,0.0
68777,254.74,42.128,0.0
68811,254.757,43.287,0.0
68844,254.783,44.618,0.0
68877,254.793,45.938,0.0
68911,254.793,46.279,0.0
68944,254.783,45.791,0.0
68977,254.777,45.152,0.0
69011,254.782,45.042,0.0
69044,254.789,45.442,0.0
69077,254.805,46.002,0.0
69110,254.81,46.771,0.0
69144,254.824,47.505,0.0
69177,254.839,48.312,0.0
69211,254.848,49.13,0.0
69244,254.848,49.785,0.0
69277,254.85,49.741,0.0
69310,254.861,50.186,0.0
69344,254.828,50.064,0.0
69377,254.749,46.256,0.0
69410,254.667,41.397,0.0
69444,254.644,38.929,0.0
69477,254.671,39.169,0.0
69510,254.706,40.614,0.0
69543,254.732,42.253,0.0
69577,254.753,43.557,0.0
69610,254.757,44.166,0.0
69643,254.756,44.193,0.0
69677,254.744,43.964,0.0
69710,254.74,43.326,0.0
69743,254.75,43.568,0.0
69777,254.766,44.489,0.0
69810,254.785,45.259,0.0
69843,254.797,46.136,0.0
69877,254.806,46.921,0.0
69910,254.812,47.443,0.0
69943,254.814,47.745,0.0
69976,254.822,48.219,0.0
70010,254.825,48.621,0.0
70043,254.829,49.001,0.0
