time,R,G,B
0,215.405,0.0,11.12
33,215.172,0.0,10.955
66,215.268,0.0,11.054
100,215.534,0.0,11.199
133,215.526,0.0,11.119
166,215.377,0.0,11.007
200,215.391,0.0,11.022
233,215.361,0.0,11.003
266,214.995,0.0,10.792
299,214.71,0.0,10.727
333,214.898,0.0,10.939
366,216.045,0.0,11.6
399,216.664,0.0,11.679
433,215.695,0.0,10.894
466,213.911,0.0,9.988
499,212.592,0.0,9.678
533,211.628,0.0,9.532
566,211.153,0.0,9.625
599,211.413,0.0,10.037
633,211.804,0.0,10.322
666,211.941,0.0,10.36
699,212.127,0.0,10.426
733,212.018,0.0,10.293
766,211.359,0.0,9.949
799,210.697,0.0,9.727
833,210.072,0.0,9.582
866,209.383,0.0,9.449
899,209.11,0.0,9.516
932,209.284,0.0,9.759
966,209.224,0.0,9.736
999,209.281,0.0,9.794
1032,209.511,0.0,9.902
1066,209.363,0.0,9.775
1099,209.372,0.0,9.788
1132,209.598,0.0,9.901
1166,209.843,0.0,9.99
1199,210.41,0.0,10.2
1232,210.592,0.0,10.146
1266,210.4,0.0,9.934
1299,209.312,0.0,9.293
1332,208.356,0.0,8.993
1366,207.6,0.0,8.88
1399,207.078,0.0,8.89
1432,206.759,0.0,8.962
1466,206.907,0.0,9.213
1499,206.908,0.0,9.266
1532,206.816,0.0,9.231
1565,206.642,0.0,9.168
1599,206.604,0.0,9.188
1632,206.712,0.0,9.282
1665,206.864,0.0,9.349
1699,206.932,0.0,9.347
1732,206.998,0.0,9.374
1765,207.115,0.0,9.394
1799,207.292,0.0,9.453
1832,207.366,0.0,9.448
1865,207.635,0.0,9.549
1899,207.692,0.0,9.497
1932,207.742,0.0,9.469
1965,207.762,0.0,9.448
1999,207.797,0.0,9.429
2032,207.158,0.0,9.05
2065,206.255,0.0,8.685
2099,205.771,0.0,8.666
2132,205.679,0.0,8.818
2165,205.804,0.0,8.991
2198,205.838,0.0,9.027
2232,205.952,0.0,9.1
2265,205.998,0.0,9.103
2298,206.197,0.0,9.195
2332,206.201,0.0,9.147
2365,206.296,0.0,9.182
2398,206.265,0.0,9.129
2432,205.937,0.0,8.955
2465,205.886,0.0,8.995
2498,205.971,0.0,9.07
2532,206.081,0.0,9.115
2565,205.94,0.0,9.033
2598,206.473,0.0,9.311
2632,206.778,0.0,9.353
2665,206.836,0.0,9.297
2698,206.829,0.0,9.244
2732,207.045,0.0,9.322
2765,207.128,0.0,9.285
2798,206.513,0.0,8.922
2831,205.8,0.0,8.644
2865,205.464,0.0,8.669
2898,205.46,0.0,8.822
2931,205.443,0.0,8.899
2965,205.522,0.0,8.973
2998,205.567,0.0,8.985
3031,205.545,0.0,8.995
3065,205.513,0.0,8.959
3098,205.469,0.0,8.958
3131,205.529,0.0,8.997
3165,205.629,0.0,9.039
3198,205.624,0.0,9.012
3231,205.767,0.0,9.083
3265,205.802,0.0,9.059
3298,205.755,0.0,9.012
3331,205.997,0.0,9.147
3365,206.181,0.0,9.183
3398,206.254,0.0,9.173
3431,206.357,0.0,9.171
3465,206.587,0.0,9.248
3498,206.892,0.0,9.333
3531,207.016,0.0,9.318
3564,207.259,0.0,9.375
3598,207.253,0.0,9.277
3631,207.251,0.0,9.268
3664,206.978,0.0,9.073
3698,206.088,0.0,8.639
3731,205.454,0.0,8.498
3764,205.332,0.0,8.671
3798,205.52,0.0,8.879
3831,205.581,0.0,8.945
3864,205.427,0.0,8.86
3898,205.52,0.0,8.95
3931,205.757,0.0,9.067
3964,205.587,0.0,8.939
3998,205.553,0.0,8.94
4031,205.66,0.0,8.998
4064,205.918,0.0,9.113
4098,206.114,0.0,9.173
4131,206.312,0.0,9.217
4164,206.556,0.0,9.276
4197,206.678,0.0,9.263
4231,206.715,0.0,9.238
4264,206.816,0.0,9.251
4297,206.992,0.0,9.304
4331,207.122,0.0,9.333
4364,207.188,0.0,9.304
4397,207.147,0.0,9.238
4431,207.27,0.0,9.308
4464,207.745,0.0,9.497
4497,207.32,0.0,9.149
4531,206.305,0.0,8.658
4564,205.872,0.0,8.643
4597,205.944,0.0,8.876
4631,205.949,0.0,8.966
4664,206.137,0.0,9.114
4697,206.158,0.0,9.09
4731,206.091,0.0,9.049
4764,206.141,0.0,9.092
4797,206.275,0.0,9.144
4830,206.113,0.0,9.035
4864,206.048,0.0,9.019
4897,206.133,0.0,9.076
4930,206.096,0.0,9.047
4964,206.156,0.0,9.092
4997,206.107,0.0,9.053
5030,206.162,0.0,9.095
5064,206.245,0.0,9.106
5097,206.109,0.0,9.011
5130,206.172,0.0,9.06
5164,206.528,0.0,9.235
5197,206.695,0.0,9.242
5230,206.809,0.0,9.241
5264,207.093,0.0,9.335
5297,207.19,0.0,9.306
5330,207.15,0.0,9.233
5364,207.068,0.0,9.167
5397,207.139,0.0,9.208
5430,206.392,0.0,8.761
5463,205.081,0.0,8.216
5497,204.427,0.0,8.196
5530,204.672,0.0,8.596
5562,204.727,0.0,8.725
5597,204.584,0.0,8.692
5630,204.668,0.0,8.779
5663,204.695,0.0,8.795
5697,204.646,0.0,8.796
5730,204.725,0.0,8.825
5763,204.617,0.0,8.771
5797,204.448,0.0,8.691
5830,204.544,0.0,8.784
5863,204.748,0.0,8.886
5897,204.973,0.0,8.967
5930,205.111,0.0,8.979
5963,205.073,0.0,8.89
5997,205.223,0.0,8.959
6030,205.39,0.0,9.001
6062,205.547,0.0,9.029
6096,205.616,0.0,9.012
6130,205.695,0.0,9.022
6163,205.89,0.0,9.079
6196,205.974,0.0,9.074
6230,205.949,0.0,9.029
6263,206.18,0.0,9.139
6295,206.324,0.0,9.139
6330,205.865,0.0,8.832
6363,204.871,0.0,8.367
6396,204.19,0.0,8.238
6430,204.033,0.0,8.407
6463,203.97,0.0,8.508
6496,203.771,0.0,8.492
6530,203.807,0.0,8.608
6562,203.716,0.0,8.583
6596,203.784,0.0,8.649
6630,203.708,0.0,8.613
6663,203.688,0.0,8.625
6696,203.57,0.0,8.555
6729,203.572,0.0,8.594
6763,203.92,0.0,8.789
6795,204.159,0.0,8.852
6829,204.414,0.0,8.897
6863,204.612,0.0,8.921
6896,204.686,0.0,8.893
6929,204.755,0.0,8.868
6963,204.886,0.0,8.898
6996,205.108,0.0,8.969
7028,205.149,0.0,8.926
7062,205.339,0.0,8.995
7096,205.493,0.0,9.009
7129,205.708,0.0,9.069
7163,205.74,0.0,9.005
7196,205.485,0.0,8.825
7229,204.65,0.0,8.397
7263,203.686,0.0,8.089
7295,203.465,0.0,8.259
7329,203.714,0.0,8.558
7363,203.815,0.0,8.638
7396,203.749,0.0,8.603
7429,203.66,0.0,8.597
7462,203.751,0.0,8.652
7496,203.854,0.0,8.703
7528,203.711,0.0,8.606
7562,203.575,0.0,8.554
7596,203.574,0.0,8.593
7629,203.693,0.0,8.677
7662,203.981,0.0,8.791
7696,204.137,0.0,8.798
7729,204.131,0.0,8.751
7761,204.401,0.0,8.864
7795,204.627,0.0,8.898
7829,204.724,0.0,8.883
7862,204.835,0.0,8.897
7896,205.061,0.0,8.966
7929,205.345,0.0,9.032
7962,205.27,0.0,8.914
7996,204.436,0.0,8.431
8028,203.271,0.0,7.979
8062,202.658,0.0,7.961
8095,202.59,0.0,8.192
8129,202.712,0.0,8.388
8162,202.761,0.0,8.444
8195,202.686,0.0,8.424
8229,202.931,0.0,8.582
8261,203.119,0.0,8.621
8295,202.924,0.0,8.48
8329,202.747,0.0,8.404
8362,202.864,0.0,8.5
8395,202.968,0.0,8.551
8429,203.188,0.0,8.644
8462,203.25,0.0,8.627
8495,203.409,0.0,8.669
8528,203.562,0.0,8.696
8562,203.793,0.0,8.77
8595,203.945,0.0,8.779
8629,204.038,0.0,8.761
8662,204.271,0.0,8.836
8695,204.467,0.0,8.862
8728,204.671,0.0,8.9
8761,204.754,0.0,8.862
8795,204.516,0.0,8.681
8828,203.568,0.0,8.205
8862,202.622,0.0,7.9
8895,202.139,0.0,7.939
8928,201.983,0.0,8.082
8962,202.078,0.0,8.276
8995,202.183,0.0,8.379
9028,202.192,0.0,8.397
9062,202.261,0.0,8.436
9095,202.404,0.0,8.501
9128,202.448,0.0,8.499
9162,202.438,0.0,8.463
9195,202.381,0.0,8.421
9228,202.437,0.0,8.46
9261,202.683,0.0,8.578
9295,202.844,0.0,8.596
9328,203.044,0.0,8.658
9361,203.228,0.0,8.683
9395,203.321,0.0,8.663
9428,203.575,0.0,8.736
9461,203.795,0.0,8.785
9495,203.894,0.0,8.762
9528,204.017,0.0,8.775
9561,204.136,0.0,8.791
9595,204.37,0.0,8.864
9628,204.36,0.0,8.79
9661,204.088,0.0,8.623
9695,203.245,0.0,8.209
9728,202.422,0.0,7.953
9761,202.011,0.0,8.003
9795,202.095,0.0,8.254
9828,202.211,0.0,8.392
9861,202.161,0.0,8.384
9895,202.142,0.0,8.398
9928,202.194,0.0,8.442
9961,202.521,0.0,8.596
9994,202.655,0.0,8.597
10028,202.679,0.0,8.566
10061,202.765,0.0,8.585
10094,202.963,0.0,8.644
10128,203.181,0.0,8.691
10161,203.337,0.0,8.716
10194,203.544,0.0,8.759
10228,203.778,0.0,8.808
10261,203.996,0.0,8.834
10294,204.108,0.0,8.818
10328,204.232,0.0,8.825
10361,204.423,0.0,8.877
10394,204.575,0.0,8.883
10428,204.665,0.0,8.875
10461,204.774,0.0,8.889
10494,204.887,0.0,8.894
10528,204.663,0.0,8.73
10561,203.66,0.0,8.203
10594,202.852,0.0,7.997
10627,202.654,0.0,8.184
10661,202.788,0.0,8.399
10694,202.931,0.0,8.519
10727,203.025,0.0,8.567
10761,203.068,0.0,8.575
10794,203.189,0.0,8.622
10827,203.345,0.0,8.666
10861,203.332,0.0,8.624
10894,203.145,0.0,8.505
10927,203.259,0.0,8.603
10961,203.285,0.0,8.595
10994,203.472,0.0,8.672
11027,203.7,0.0,8.747
11061,203.858,0.0,8.769
11094,204.011,0.0,8.782
11127,204.266,0.0,8.859
11161,204.338,0.0,8.811
11194,204.458,0.0,8.832
11227,204.595,0.0,8.838
11261,204.624,0.0,8.816
11294,204.601,0.0,8.768
11327,203.871,0.0,8.353
11360,203.055,0.0,8.076
11394,202.655,0.0,8.092
11427,202.726,0.0,8.333
11460,202.887,0.0,8.476
11494,202.984,0.0,8.526
11527,203.113,0.0,8.581
11560,203.186,0.0,8.591
11594,203.289,0.0,8.61
11627,203.505,0.0,8.683
11660,203.463,0.0,8.608
11694,203.459,0.0,8.591
11727,203.624,0.0,8.651
11760,203.933,0.0,8.771
11794,204.024,0.0,8.752
11827,204.296,0.0,8.832
11860,204.472,0.0,8.843
11894,204.639,0.0,8.869
11927,204.895,0.0,8.937
11960,205.104,0.0,8.957
11993,205.272,0.0,8.961
12027,205.381,0.0,8.958
12060,205.536,0.0,8.975
12093,205.694,0.0,8.998
12127,205.177,0.0,8.639
12160,204.114,0.0,8.167
12193,203.505,0.0,8.094
12227,203.354,0.0,8.259
12260,203.375,0.0,8.407
12293,203.398,0.0,8.493
12327,203.361,0.0,8.501
12360,203.42,0.0,8.551
12393,203.653,0.0,8.673
12427,203.698,0.0,8.646
12460,203.693,0.0,8.615
12493,203.661,0.0,8.588
12527,203.683,0.0,8.598
12560,203.801,0.0,8.653
12593,203.947,0.0,8.709
12626,204.131,0.0,8.767
12660,204.45,0.0,8.864
12693,204.779,0.0,8.956
12726,205.001,0.0,8.953
12760,205.279,0.0,9.013
12793,205.463,0.0,9.008
12826,205.575,0.0,8.989
12860,205.742,0.0,9.005
12893,205.771,0.0,8.961
12926,205.862,0.0,8.979
12960,205.956,0.0,8.982
12993,205.86,0.0,8.899
13026,205.061,0.0,8.445
13060,204.137,0.0,8.129
13093,203.733,0.0,8.174
13126,203.76,0.0,8.407
13160,203.704,0.0,8.471
13193,203.697,0.0,8.532
13226,203.501,0.0,8.458
13259,203.544,0.0,8.533
13293,203.583,0.0,8.563
13326,203.649,0.0,8.601
13359,203.62,0.0,8.563
13393,203.519,0.0,8.521
13426,203.661,0.0,8.611
13459,203.884,0.0,8.716
13493,204.0,0.0,8.713
13526,204.19,0.0,8.769
13559,204.511,0.0,8.87
13593,204.702,0.0,8.873
13626,204.759,0.0,8.824
13659,204.858,0.0,8.816
13693,204.974,0.0,8.838
13726,205.139,0.0,8.887
13759,205.346,0.0,8.932
13793,205.397,0.0,8.891
13826,205.488,0.0,8.901
13859,205.586,0.0,8.905
13892,205.615,0.0,8.884
13926,204.845,0.0,8.431
13959,203.718,0.0,7.983
13992,203.162,0.0,7.991
14026,203.15,0.0,8.234
14059,203.33,0.0,8.444
14092,203.401,0.0,8.496
14126,203.323,0.0,8.469
14159,203.373,0.0,8.51
14192,203.5,0.0,8.576
14226,203.458,0.0,8.528
14259,203.321,0.0,8.453
14292,203.396,0.0,8.517
14326,203.535,0.0,8.584
14359,203.493,0.0,8.531
14392,203.622,0.0,8.59
14426,203.905,0.0,8.717
14459,204.148,0.0,8.768
14492,204.278,0.0,8.754
14525,204.484,0.0,8.802
14559,204.657,0.0,8.818
14592,204.736,0.0,8.799
14625,204.977,0.0,8.869
14659,205.217,0.0,8.92
14692,205.158,0.0,8.806
14725,204.435,0.0,8.392
14759,203.602,0.0,8.097
14792,203.138,0.0,8.078
14825,203.144,0.0,8.29
14859,203.367,0.0,8.489
14892,203.481,0.0,8.547
14925,203.395,0.0,8.492
14959,203.417,0.0,8.523
14992,203.64,0.0,8.634
15025,203.83,0.0,8.692
15059,203.797,0.0,8.622
15092,203.867,0.0,8.631
15125,203.956,0.0,8.663
15158,204.077,0.0,8.69
15192,204.259,0.0,8.755
15225,204.387,0.0,8.765
15258,204.618,0.0,8.836
15292,204.783,0.0,8.832
15325,204.942,0.0,8.853
15358,205.105,0.0,8.883
15392,205.085,0.0,8.813
15425,205.24,0.0,8.868
15458,205.4,0.0,8.906
15492,205.414,0.0,8.866
15525,205.439,0.0,8.849
15558,205.364,0.0,8.788
15592,204.808,0.0,8.478
15625,203.528,0.0,7.904
15658,202.628,0.0,7.76
15692,202.43,0.0,7.997
15725,202.574,0.0,8.253
15758,202.513,0.0,8.296
15792,202.414,0.0,8.275
15825,202.293,0.0,8.252
15858,202.176,0.0,8.252
15891,202.063,0.0,8.248
15925,202.046,0.0,8.261
15958,202.17,0.0,8.344
15991,202.368,0.0,8.445
16025,202.739,0.0,8.594
16058,203.093,0.0,8.66
16091,203.488,0.0,8.766
16125,203.875,0.0,8.828
16158,204.146,0.0,8.843
16191,204.424,0.0,8.867
16225,204.425,0.0,8.763
16258,204.471,0.0,8.743
16291,204.719,0.0,8.837
16325,204.959,0.0,8.891
16358,205.037,0.0,8.865
16391,205.27,0.0,8.94
16425,205.468,0.0,8.968
16458,205.49,0.0,8.905
16491,204.79,0.0,8.483
16524,203.746,0.0,8.051
16558,203.19,0.0,8.033
16591,203.122,0.0,8.242
16624,203.112,0.0,8.371
16658,203.09,0.0,8.418
16691,203.035,0.0,8.425
16724,202.947,0.0,8.407
16758,203.083,0.0,8.506
16791,203.174,0.0,8.538
16824,203.06,0.0,8.457
16858,202.945,0.0,8.425
16891,203.036,0.0,8.486
16924,203.151,0.0,8.554
16958,203.424,0.0,8.653
16991,203.576,0.0,8.661
17024,203.81,0.0,8.728
17058,203.97,0.0,8.734
17091,204.025,0.0,8.7
17124,204.184,0.0,8.756
17157,204.207,0.0,8.697
17191,204.292,0.0,8.719
17224,204.443,0.0,8.769
17257,204.585,0.0,8.788
17291,204.092,0.0,8.475
17324,203.044,0.0,7.984
17357,202.307,0.0,7.859
17391,202.066,0.0,7.988
17424,202.128,0.0,8.207
17457,202.269,0.0,8.343
17491,202.333,0.0,8.378
17524,202.381,0.0,8.4
17557,202.429,0.0,8.429
17591,202.344,0.0,8.366
17624,202.235,0.0,8.315
17657,202.244,0.0,8.333
17691,202.492,0.0,8.475
17724,202.78,0.0,8.577
17757,202.981,0.0,8.6
17790,203.256,0.0,8.672
17824,203.58,0.0,8.754
17857,203.772,0.0,8.747
17890,203.918,0.0,8.743
17924,203.981,0.0,8.709
17957,204.148,0.0,8.746
17990,204.382,0.0,8.819
18024,204.452,0.0,8.777
18057,204.576,0.0,8.79
18090,204.598,0.0,8.758
18124,204.632,0.0,8.728
18157,203.716,0.0,8.213
18190,202.73,0.0,7.887
18224,202.214,0.0,7.915
18257,202.364,0.0,8.224
18290,202.474,0.0,8.366
18324,202.459,0.0,8.371
18357,202.33,0.0,8.327
18390,202.527,0.0,8.453
18423,202.68,0.0,8.511
18457,202.608,0.0,8.429
18490,202.424,0.0,8.334
18523,202.472,0.0,8.39
18557,202.635,0.0,8.475
18590,202.971,0.0,8.623
18623,203.135,0.0,8.608
18657,203.308,0.0,8.643
18690,203.593,0.0,8.727
18723,203.723,0.0,8.706
18757,203.821,0.0,8.693
18790,203.986,0.0,8.737
18823,204.156,0.0,8.758
18857,204.273,0.0,8.76
18890,204.204,0.0,8.649
18923,203.298,0.0,8.174
18957,202.264,0.0,7.82
18990,201.886,0.0,7.916
19023,202.135,0.0,8.241
19056,202.372,0.0,8.422
19090,202.55,0.0,8.509
19123,202.76,0.0,8.556
19156,202.934,0.0,8.594
19190,203.051,0.0,8.585
19223,202.816,0.0,8.418
19256,202.776,0.0,8.43
19290,202.97,0.0,8.54
19323,203.151,0.0,8.592
19356,203.311,0.0,8.635
19390,203.606,0.0,8.733
19423,203.943,0.0,8.821
19456,204.279,0.0,8.89
19490,204.633,0.0,8.963
19523,204.973,0.0,9.005
19556,205.237,0.0,9.022
19590,205.403,0.0,9.009
19623,205.463,0.0,8.943
19656,204.989,0.0,8.634
19690,203.89,0.0,8.121
19723,203.093,0.0,7.959
19756,202.935,0.0,8.167
19789,203.078,0.0,8.41
19823,203.194,0.0,8.52
19856,203.245,0.0,8.548
19889,203.33,0.0,8.589
19923,203.587,0.0,8.703
19956,203.753,0.0,8.724
19989,203.725,0.0,8.657
20023,203.68,0.0,8.614
20056,203.767,0.0,8.664
20089,204.014,0.0,8.777
20123,204.425,0.0,8.919
20156,204.763,0.0,8.989
20189,204.912,0.0,8.948
20223,205.066,0.0,8.959
20256,205.236,0.0,8.975
20289,205.51,0.0,9.048
20323,205.701,0.0,9.061
20356,206.004,0.0,9.139
20389,206.084,0.0,9.105
20422,206.196,0.0,9.108
20456,206.303,0.0,9.081
20489,206.322,0.0,9.045
20522,205.375,0.0,8.509
20556,204.231,0.0,8.079
20589,203.638,0.0,8.102
20622,203.632,0.0,8.373
20656,203.814,0.0,8.593
20689,203.845,0.0,8.626
20722,203.719,0.0,8.591
20756,203.842,0.0,8.694
20789,203.998,0.0,8.764
20822,203.934,0.0,8.689
20856,203.81,0.0,8.623
20889,203.778,0.0,8.619
20922,203.846,0.0,8.673
20956,204.053,0.0,8.773
20989,204.378,0.0,8.876
21022,204.51,0.0,8.883
21055,204.841,0.0,9.0
21089,205.065,0.0,9.008
21122,205.254,0.0,9.02
21155,205.515,0.0,9.07
21189,205.649,0.0,9.057
21222,205.823,0.0,9.085
21255,205.917,0.0,9.067
21289,206.018,0.0,9.07
21322,206.24,0.0,9.128
21355,206.346,0.0,9.119
21389,206.478,0.0,9.147
21422,205.82,0.0,8.721
21455,204.535,0.0,8.142
21489,203.826,0.0,8.084
21522,203.646,0.0,8.287
21555,203.791,0.0,8.538
21589,203.819,0.0,8.603
21622,203.716,0.0,8.578
21655,203.667,0.0,8.586
21687,203.911,0.0,8.743
21722,203.948,0.0,8.725
21755,203.897,0.0,8.671
21788,203.842,0.0,8.641
21822,203.992,0.0,8.731
21855,204.188,0.0,8.799
21888,204.421,0.0,8.87
21922,204.725,0.0,8.946
21955,205.043,0.0,9.023
21988,205.283,0.0,9.048
22022,205.422,0.0,9.033
22055,205.577,0.0,9.037
22088,205.637,0.0,9.009
22122,205.648,0.0,8.971
22155,205.64,0.0,8.938
22187,205.736,0.0,8.978
22222,205.702,0.0,8.932
22255,204.892,0.0,8.47
22288,203.665,0.0,7.974
22321,202.91,0.0,7.922
22355,202.769,0.0,8.143
22388,202.898,0.0,8.391
22420,202.875,0.0,8.434
22455,202.841,0.0,8.455
22488,202.931,0.0,8.527
22521,203.1,0.0,8.604
22555,203.128,0.0,8.572
22588,202.922,0.0,8.447
22621,203.035,0.0,8.542
22655,203.301,0.0,8.654
22687,203.518,0.0,8.72
22721,203.604,0.0,8.693
22755,203.925,0.0,8.815
22788,204.124,0.0,8.847
22821,204.198,0.0,8.8
22855,204.395,0.0,8.85
22888,204.536,0.0,8.851
22920,204.614,0.0,8.841
22954,204.896,0.0,8.947
22988,205.012,0.0,8.914
23021,204.916,0.0,8.805
23054,204.147,0.0,8.389
23088,202.937,0.0,7.897
23121,202.109,0.0,7.788
23153,201.913,0.0,8.003
23187,201.975,0.0,8.212
23321,202.355,0.0,8.508
23354,202.408,0.0,8.493
23388,202.218,0.0,8.363
23420,202.113,0.0,8.342
23454,202.258,0.0,8.429
23488,202.45,0.0,8.516
23521,202.477,0.0,8.482
23554,202.744,0.0,8.58
23588,202.853,0.0,8.575
23621,202.844,0.0,8.53
23653,203.012,0.0,8.588
23687,203.197,0.0,8.63
23721,203.268,0.0,8.614
23754,203.298,0.0,8.597
23787,203.384,0.0,8.607
23821,203.598,0.0,8.684
23854,203.56,0.0,8.609
23886,203.698,0.0,8.672
23920,203.898,0.0,8.735
23954,203.49,0.0,8.438
23987,202.296,0.0,7.868
24021,201.467,0.0,7.71
24054,201.124,0.0,7.827
24087,201.096,0.0,8.042
24121,201.041,0.0,8.109
24153,201.168,0.0,8.229
24187,201.308,0.0,8.301
24221,201.593,0.0,8.424
24254,201.978,0.0,8.531
24287,202.196,0.0,8.542
24320,202.256,0.0,8.491
24354,202.536,0.0,8.585
24386,203.001,0.0,8.738
24420,203.452,0.0,8.838
24454,203.93,0.0,8.949
24487,204.1,0.0,8.885
24520,204.281,0.0,8.885
24554,204.512,0.0,8.923
24587,204.915,0.0,9.047
24620,205.201,0.0,9.076
24653,205.503,0.0,9.126
24687,205.703,0.0,9.117
24720,205.923,0.0,9.145
24754,206.093,0.0,9.138
24787,206.251,0.0,9.158
24820,206.413,0.0,9.187
24854,206.595,0.0,9.222
24886,206.395,0.0,9.023
24920,205.232,0.0,8.404
24953,204.259,0.0,8.129
24987,204.047,0.0,8.333
25020,204.126,0.0,8.572
25053,204.13,0.0,8.631
25087,204.251,0.0,8.731
25120,204.294,0.0,8.757
25153,204.396,0.0,8.808
25187,204.536,0.0,8.843
25220,204.434,0.0,8.76
25253,204.406,0.0,8.746
25287,204.663,0.0,8.881
25320,205.005,0.0,9.02
25353,205.21,0.0,9.016
25386,205.461,0.0,9.092
25420,205.723,0.0,9.133
25453,205.917,0.0,9.145
25487,206.074,0.0,9.139
25520,206.3,0.0,9.189
25553,206.399,0.0,9.166
25586,206.579,0.0,9.198
25620,206.863,0.0,9.279
25653,206.9,0.0,9.214
25686,206.564,0.0,8.988
25720,205.375,0.0,8.383
25753,204.433,0.0,8.145
25786,204.238,0.0,8.35
25820,204.389,0.0,8.623
25853,204.322,0.0,8.654
25886,204.306,0.0,8.681
25920,204.424,0.0,8.771
25953,204.573,0.0,8.841
25986,204.587,0.0,8.811
26020,204.499,0.0,8.748
26053,204.546,0.0,8.772
26086,204.532,0.0,8.758
26120,204.612,0.0,8.803
26153,204.88,0.0,8.922
26186,205.046,0.0,8.944
26219,205.277,0.0,9.004
26253,205.524,0.0,9.047
26286,205.8,0.0,9.107
26319,205.986,0.0,9.122
26353,206.075,0.0,9.08
26386,206.222,0.0,9.097
26419,206.406,0.0,9.153
26453,206.554,0.0,9.162
26486,206.782,0.0,9.231
26519,206.988,0.0,9.256
26553,207.026,0.0,9.208
26586,206.303,0.0,8.75
26619,205.154,0.0,8.249
26653,204.356,0.0,8.12
26686,204.154,0.0,8.322
26719,204.026,0.0,8.442
26753,204.009,0.0,8.556
26786,203.805,0.0,8.493
26819,203.8,0.0,8.576
26852,204.058,0.0,8.751
26886,204.232,0.0,8.793
26919,204.133,0.0,8.707
26952,204.105,0.0,8.685
26986,204.172,0.0,8.707
27019,204.143,0.0,8.701
27052,204.298,0.0,8.76
27086,204.457,0.0,8.817
27119,204.663,0.0,8.86
27152,204.922,0.0,8.932
27186,205.229,0.0,9.011
27219,205.391,0.0,9.011
27252,205.562,0.0,9.012
27286,205.68,0.0,9.008
27319,206.037,0.0,9.145
27352,206.311,0.0,9.189
27386,206.489,0.0,9.178
27419,206.68,0.0,9.194
27452,206.974,0.0,9.278
27486,207.093,0.0,9.238
27519,207.097,0.0,9.171
27552,206.276,0.0,8.678
27585,204.766,0.0,8.031
27619,203.942,0.0,7.983
27652,204.175,0.0,8.418
27685,204.232,0.0,8.565
27719,204.028,0.0,8.511
27752,203.6,0.0,8.378
27785,203.5,0.0,8.444
27819,203.784,0.0,8.672
27852,204.037,0.0,8.761
27885,204.066,0.0,8.707
27919,203.964,0.0,8.631
27952,203.841,0.0,8.571
27985,204.167,0.0,8.767
28019,204.621,0.0,8.945
28052,204.983,0.0,9.017
28085,205.157,0.0,8.977
28119,205.05,0.0,8.843
28152,205.103,0.0,8.857
28185,205.303,0.0,8.925
28218,205.501,0.0,8.983
28252,205.707,0.0,9.025
28285,205.81,0.0,8.993
28318,205.865,0.0,8.981
28352,206.14,0.0,9.089
28385,206.544,0.0,9.213
28418,206.579,0.0,9.115
28452,205.546,0.0,8.464
28485,204.091,0.0,7.901
28518,203.235,0.0,7.831
28552,203.021,0.0,8.078
28585,203.363,0.0,8.465
28618,203.751,0.0,8.68
28652,203.774,0.0,8.632
28685,203.629,0.0,8.545
28718,203.793,0.0,8.637
28752,203.919,0.0,8.668
28785,203.957,0.0,8.656
28818,203.906,0.0,8.616
28851,203.967,0.0,8.636
28885,204.039,0.0,8.664
28918,203.79,0.0,8.524
28951,203.977,0.0,8.656
28985,204.208,0.0,8.751
29018,204.222,0.0,8.701
29051,204.442,0.0,8.782
29085,204.513,0.0,8.762
29118,204.673,0.0,8.799
29151,204.783,0.0,8.792
29185,204.784,0.0,8.74
29218,204.799,0.0,8.736
29251,204.506,0.0,8.551
29285,203.221,0.0,7.919
29318,202.187,0.0,7.667
29351,201.988,0.0,7.901
29385,202.057,0.0,8.131
29418,201.999,0.0,8.189
29451,201.924,0.0,8.205
29484,201.878,0.0,8.22
29518,202.044,0.0,8.349
29551,202.275,0.0,8.432
29584,202.222,0.0,8.339
29618,202.036,0.0,8.251
29651,202.161,0.0,8.336
29684,202.454,0.0,8.474
29718,202.641,0.0,8.507
29751,202.93,0.0,8.592
29784,203.215,0.0,8.646
29818,203.501,0.0,8.695
29851,203.287,0.0,8.49
29884,203.149,0.0,8.427
29918,203.352,0.0,8.554
29951,203.612,0.0,8.636
29984,203.939,0.0,8.726
30018,204.123,0.0,8.731
30051,204.295,0.0,8.75
30084,204.448,0.0,8.75
30117,204.495,0.0,8.707
30151,204.612,0.0,8.722
30184,204.344,0.0,8.529
30217,203.135,0.0,7.927
30251,202.105,0.0,7.66
30284,201.731,0.0,7.793
30317,201.747,0.0,8.029
30351,201.71,0.0,8.12
30384,201.562,0.0,8.094
30417,201.532,0.0,8.131
30451,201.701,0.0,8.269
30484,201.936,0.0,8.365
30517,202.273,0.0,8.481
30551,202.563,0.0,8.545
30584,202.582,0.0,8.446
30617,202.404,0.0,8.33
30651,202.895,0.0,8.586
30684,203.574,0.0,8.831
30717,203.988,0.0,8.886
30750,204.446,0.0,8.97
30784,204.737,0.0,8.956
30817,204.801,0.0,8.875
30850,205.006,0.0,8.898
30884,205.131,0.0,8.89
30917,205.165,0.0,8.841
30950,205.29,0.0,8.868
30984,205.541,0.0,8.966
31017,205.845,0.0,9.051
31050,206.307,0.0,9.202
31084,206.421,0.0,9.116
31117,205.304,0.0,8.432
31150,203.898,0.0,7.894
31184,203.111,0.0,7.843
31217,203.042,0.0,8.131
31250,203.155,0.0,8.374
31284,203.191,0.0,8.448
31317,203.13,0.0,8.446
31350,203.143,0.0,8.476
31383,203.355,0.0,8.59
31417,203.26,0.0,8.493
31450,203.159,0.0,8.452
31483,203.209,0.0,8.485
31517,203.287,0.0,8.514
31550,203.266,0.0,8.509
31583,203.478,0.0,8.608
31617,203.628,0.0,8.631
31650,203.681,0.0,8.608
31683,203.818,0.0,8.648
31717,203.797,0.0,8.582
31750,203.803,0.0,8.57
31783,203.946,0.0,8.622
31817,204.144,0.0,8.692
31850,204.234,0.0,8.676
31883,204.012,0.0,8.507
31917,202.682,0.0,7.808
31950,201.358,0.0,7.423
31983,200.871,0.0,7.569
32017,200.9,0.0,7.851
32050,201.052,0.0,8.047
32083,201.083,0.0,8.108
32116,201.195,0.0,8.172
32150,201.552,0.0,8.338
32183,201.666,0.0,8.302
32216,201.513,0.0,8.161
32250,201.324,0.0,8.082
32283,201.364,0.0,8.141
32316,201.74,0.0,8.336
32350,202.06,0.0,8.422
32383,202.167,0.0,8.371
32416,202.467,0.0,8.475
32450,202.686,0.0,8.494
32483,202.898,0.0,8.511
32516,203.006,0.0,8.488
32550,203.344,0.0,8.608
32583,203.64,0.0,8.649
32616,203.678,0.0,8.567
32650,203.785,0.0,8.58
32683,203.841,0.0,8.556
32716,202.964,0.0,8.033
32749,201.464,0.0,7.433
32783,200.591,0.0,7.352
32816,200.43,0.0,7.613
32849,200.359,0.0,7.781
32883,200.392,0.0,7.911
32916,200.496,0.0,8.006
32949,200.537,0.0,8.027
32983,200.805,0.0,8.161
33016,200.999,0.0,8.198
33049,200.945,0.0,8.118
33083,200.915,0.0,8.086
33116,201.079,0.0,8.184
33149,201.461,0.0,8.34
33183,201.75,0.0,8.377
33216,201.96,0.0,8.396
33249,202.193,0.0,8.43
33283,202.517,0.0,8.51
33316,202.733,0.0,8.524
33349,203.008,0.0,8.587
33382,203.193,0.0,8.573
33416,203.436,0.0,8.619
33449,203.632,0.0,8.633
33482,203.81,0.0,8.662
33516,203.854,0.0,8.609
33549,203.72,0.0,8.479
33582,203.746,0.0,8.52
33616,202.696,0.0,7.919
33649,201.159,0.0,7.355
33682,200.241,0.0,7.283
33716,200.144,0.0,7.603
33749,200.263,0.0,7.856
33782,200.281,0.0,7.938
33816,200.21,0.0,7.934
33849,200.147,0.0,7.945
33882,200.318,0.0,8.064
33916,200.55,0.0,8.143
33949,200.555,0.0,8.078
33982,200.514,0.0,8.043
34015,200.76,0.0,8.164
34049,201.113,0.0,8.282
34082,201.305,0.0,8.296
34115,201.473,0.0,8.309
34149,201.524,0.0,8.276
34182,201.723,0.0,8.333
34215,201.975,0.0,8.387
34249,202.066,0.0,8.355
34282,202.291,0.0,8.432
34315,202.539,0.0,8.476
34349,202.804,0.0,8.536
34382,202.912,0.0,8.507
34415,203.076,0.0,8.522
34449,203.238,0.0,8.557
34482,203.013,0.0,8.351
34515,201.685,0.0,7.664
34549,200.336,0.0,7.257
34582,199.729,0.0,7.354
34615,199.998,0.0,7.791
34648,200.195,0.0,7.97
34682,200.212,0.0,7.995
34715,200.252,0.0,8.013
34748,200.373,0.0,8.078
34782,200.571,0.0,8.144
34815,200.49,0.0,8.043
34848,200.32,0.0,7.965
34882,200.376,0.0,8.004
34915,200.551,0.0,8.11
34948,200.714,0.0,8.15
34982,200.82,0.0,8.164
35015,201.012,0.0,8.214
35048,201.186,0.0,8.239
35082,201.33,0.0,8.255
35115,201.382,0.0,8.232
35148,201.521,0.0,8.256
35182,201.791,0.0,8.346
35215,201.958,0.0,8.345
35248,201.982,0.0,8.291
35282,201.221,0.0,7.845
35315,199.82,0.0,7.27
35348,198.541,0.0,6.99
35381,198.435,0.0,7.333
35415,198.956,0.0,7.777
35448,199.218,0.0,7.896
35481,199.374,0.0,7.944
35515,199.53,0.0,7.962
35548,199.39,0.0,7.861
35581,199.385,0.0,7.871
35615,199.271,0.0,7.804
35648,199.398,0.0,7.892
35681,199.685,0.0,8.011
35715,200.016,0.0,8.112
35748,200.211,0.0,8.114
35781,200.292,0.0,8.072
35815,200.542,0.0,8.153
35848,200.826,0.0,8.214
35881,200.921,0.0,8.17
35915,201.015,0.0,8.161
35948,201.214,0.0,8.217
35981,201.414,0.0,8.241
36014,201.647,0.0,8.3
36048,202.052,0.0,8.418
36081,202.525,0.0,8.545
36114,202.759,0.0,8.509
36148,202.763,0.0,8.418
36181,201.908,0.0,7.892
36214,200.374,0.0,7.241
36248,199.423,0.0,7.145
36281,199.301,0.0,7.448
36314,199.679,0.0,7.834
36348,199.878,0.0,7.945
36381,199.796,0.0,7.887
36414,200.057,0.0,8.04
36448,200.676,0.0,8.291
36481,201.276,0.0,8.452
36514,201.621,0.0,8.45
36548,201.774,0.0,8.399
36581,201.953,0.0,8.393
36614,202.471,0.0,8.581
36647,203.079,0.0,8.753
36681,203.129,0.0,8.611
36714,203.149,0.0,8.552
36747,203.284,0.0,8.588
36781,203.583,0.0,8.683
36814,204.354,0.0,9.003
36847,205.133,0.0,9.188
36881,205.181,0.0,8.985
36914,205.244,0.0,8.924
36947,205.454,0.0,8.952
36981,205.334,0.0,8.825
37014,205.332,0.0,8.841
37047,205.758,0.0,9.048
37081,205.882,0.0,9.02
37114,205.106,0.0,8.517
37147,203.808,0.0,7.96
37181,202.857,0.0,7.789
37214,202.555,0.0,7.999
37247,202.788,0.0,8.342
37280,202.934,0.0,8.472
37314,202.735,0.0,8.384
37347,202.826,0.0,8.481
37380,202.756,0.0,8.435
37414,202.25,0.0,8.202
37447,201.695,0.0,8.02
37480,201.458,0.0,8.047
37514,201.411,0.0,8.153
37547,201.649,0.0,8.317
37580,201.915,0.0,8.413
37614,201.959,0.0,8.384
37647,202.061,0.0,8.408
37680,202.334,0.0,8.493
37714,202.434,0.0,8.461
37747,202.218,0.0,8.321
37780,202.19,0.0,8.327
37814,202.533,0.0,8.506
37847,202.851,0.0,8.589
37880,202.982,0.0,8.57
37913,202.808,0.0,8.407
37947,202.54,0.0,8.294
37980,202.468,0.0,8.294
38013,201.877,0.0,7.996
38047,200.341,0.0,7.344
38080,199.185,0.0,7.126
38113,198.771,0.0,7.301
38147,198.725,0.0,7.541
38180,198.69,0.0,7.674
38213,198.569,0.0,7.668
38247,198.329,0.0,7.613
38280,198.289,0.0,7.669
38312,198.264,0.0,7.698
38347,198.068,0.0,7.625
38380,198.118,0.0,7.688
38413,198.332,0.0,7.802
38447,198.617,0.0,7.902
38480,198.719,0.0,7.876
38513,198.831,0.0,7.891
38545,198.912,0.0,7.89
38580,198.885,0.0,7.828
38613,198.873,0.0,7.812
38646,199.095,0.0,7.902
38680,199.175,0.0,7.892
38713,199.41,0.0,7.973
38746,199.694,0.0,8.05
38780,199.771,0.0,8.003
38812,199.955,0.0,8.05
38846,200.132,0.0,8.068
38880,200.265,0.0,8.081
38913,200.511,0.0,8.134
38946,200.034,0.0,7.798
38980,198.66,0.0,7.161
39013,197.872,0.0,7.059
39045,197.75,0.0,7.293
39080,197.803,0.0,7.493
39113,197.927,0.0,7.626
39146,198.048,0.0,7.691
39180,198.119,0.0,7.72
39213,198.339,0.0,7.809
39246,198.438,0.0,7.797
39278,198.478,0.0,7.777
39312,198.525,0.0,7.771
39346,198.752,0.0,7.856
39379,198.911,0.0,7.888
39413,199.147,0.0,7.941
39446,199.374,0.0,7.99
39479,199.746,0.0,8.116
39513,200.247,0.0,8.229
39545,200.621,0.0,8.281
39579,200.828,0.0,8.247
39613,200.952,0.0,8.197
39646,201.089,0.0,8.196
39679,201.302,0.0,8.247
39713,201.568,0.0,8.314
39746,201.735,0.0,8.296
39778,202.041,0.0,8.385
39812,202.303,0.0,8.418
39846,202.321,0.0,8.347
39879,201.942,0.0,8.097
39912,200.901,0.0,7.59
39946,199.997,0.0,7.355
39979,199.636,0.0,7.462
40011,199.666,0.0,7.706
40045,200.3,0.0,8.101
40079,200.911,0.0,8.318
40112,201.387,0.0,8.408
40146,201.807,0.0,8.47
40179,201.968,0.0,8.401
40212,201.788,0.0,8.214
40246,201.951,0.0,8.282
40278,202.05,0.0,8.304
40312,202.384,0.0,8.441
40346,202.554,0.0,8.442
40379,202.372,0.0,8.299
40412,202.347,0.0,8.293
40446,201.988,0.0,8.097
40479,201.612,0.0,7.987
40511,201.637,0.0,8.092
40545,201.897,0.0,8.239
40579,201.949,0.0,8.225
40612,201.909,0.0,8.185
40645,201.521,0.0,7.954
40679,200.309,0.0,7.39
40712,199.321,0.0,7.174
40745,199.193,0.0,7.435
40778,199.406,0.0,7.704
40812,199.84,0.0,7.95
40845,200.102,0.0,8.013
40879,200.265,0.0,8.032
40912,200.549,0.0,8.104
40945,200.65,0.0,8.071
40979,200.665,0.0,8.018
41011,200.837,0.0,8.068
41045,200.905,0.0,8.068
41079,201.004,0.0,8.088
41112,201.34,0.0,8.217
41145,201.593,0.0,8.259
41178,201.713,0.0,8.241
41212,201.965,0.0,8.288
41245,202.27,0.0,8.379
41278,202.609,0.0,8.441
41312,202.858,0.0,8.46
41345,203.259,0.0,8.567
41378,203.589,0.0,8.602
41412,203.653,0.0,8.524
41445,203.273,0.0,8.253
41478,201.85,0.0,7.544
41511,200.744,0.0,7.293
41545,200.471,0.0,7.516
41578,200.665,0.0,7.823
41612,200.868,0.0,7.984
41645,200.906,0.0,8.007
41678,200.907,0.0,8.011
41712,201.068,0.0,8.086
41745,201.229,0.0,8.133
41778,201.231,0.0,8.08
41811,201.242,0.0,8.074
41845,201.32,0.0,8.095
41878,201.355,0.0,8.105
41911,201.557,0.0,8.187
41945,201.742,0.0,8.213
41978,202.076,0.0,8.33
42011,202.319,0.0,8.356
42045,202.384,0.0,8.309
42078,202.447,0.0,8.296
42111,202.622,0.0,8.351
42145,203.089,0.0,8.528
42178,203.32,0.0,8.506
42211,203.299,0.0,8.425
42245,203.279,0.0,8.378
42278,203.453,0.0,8.431
42311,202.765,0.0,8.003
42345,201.417,0.0,7.449
42378,200.677,0.0,7.383
42411,200.625,0.0,7.649
42444,200.703,0.0,7.833
42478,200.806,0.0,7.96
42511,200.808,0.0,7.953
42544,200.897,0.0,8.015
42578,201.15,0.0,8.128
42611,201.178,0.0,8.089
42644,201.164,0.0,8.057
42678,201.282,0.0,8.092
42711,201.33,0.0,8.089
42744,201.44,0.0,8.124
42778,201.372,0.0,8.061
42811,201.644,0.0,8.208
42844,201.916,0.0,8.275
42878,201.922,0.0,8.211
42911,202.046,0.0,8.237
42944,202.22,0.0,8.272
42978,202.209,0.0,8.219
43011,202.408,0.0,8.288
43044,202.645,0.0,8.348
43077,202.717,0.0,8.316
43111,202.851,0.0,8.337
43144,202.832,0.0,8.273
43177,201.838,0.0,7.734
43211,200.748,0.0,7.368
43244,200.299,0.0,7.457
43277,200.498,0.0,7.773
43311,200.672,0.0,7.939
43344,200.749,0.0,7.985
43377,200.854,0.0,8.029
43411,201.127,0.0,8.145
43444,201.15,0.0,8.079
43477,200.899,0.0,7.923
43511,200.841,0.0,7.942
43544,201.052,0.0,8.066
43577,201.238,0.0,8.135
43611,201.411,0.0,8.178
43644,201.693,0.0,8.268
43677,201.82,0.0,8.246
43711,201.864,0.0,8.206
43744,201.959,0.0,8.201
43777,202.111,0.0,8.24
43810,202.217,0.0,8.241
43844,202.273,0.0,8.234
43877,202.145,0.0,8.132
43910,201.201,0.0,7.65
43944,200.109,0.0,7.286
43977,199.632,0.0,7.355
44010,199.722,0.0,7.642
44044,199.818,0.0,7.788
44077,199.86,0.0,7.83
44110,199.905,0.0,7.873
44144,200.182,0.0,8.006
44177,200.393,0.0,8.045
44210,200.448,0.0,7.993
44244,200.442,0.0,7.961
44277,200.485,0.0,7.975
44310,200.712,0.0,8.062
44344,200.922,0.0,8.114
44377,201.134,0.0,8.168
44410,201.33,0.0,8.192
44443,201.412,0.0,8.172
44477,201.563,0.0,8.201
44510,201.826,0.0,8.27
44543,202.015,0.0,8.292
44577,202.203,0.0,8.311
44610,202.335,0.0,8.318
44643,202.279,0.0,8.211
44677,201.203,0.0,7.628
44710,199.893,0.0,7.167
44743,199.25,0.0,7.206
44777,199.267,0.0,7.518
44810,199.301,0.0,7.665
44843,199.339,0.0,7.746
44877,199.345,0.0,7.766
44910,199.465,0.0,7.847
44943,199.588,0.0,7.893
44977,199.711,0.0,7.923
45010,199.558,0.0,7.81
45043,199.538,0.0,7.827
45076,199.736,0.0,7.924
45110,199.93,0.0,7.983
45143,200.219,0.0,8.075
45176,200.498,0.0,8.126
45210,200.673,0.0,8.143
45243,200.943,0.0,8.196
45276,201.174,0.0,8.217
45310,201.329,0.0,8.21
45343,201.38,0.0,8.172
45376,201.512,0.0,8.209
45410,201.558,0.0,8.189
45443,201.711,0.0,8.219
45476,201.841,0.0,8.251
45510,202.018,0.0,8.286
45543,201.698,0.0,8.04
45576,200.307,0.0,7.354
45610,199.222,0.0,7.116
45643,198.964,0.0,7.316
45676,199.106,0.0,7.621
45709,199.2,0.0,7.745
45743,199.222,0.0,7.774
45776,199.015,0.0,7.681
45809,199.198,0.0,7.822
45843,199.436,0.0,7.907
45876,199.525,0.0,7.9
45909,199.483,0.0,7.845
45943,199.502,0.0,7.856
45976,199.63,0.0,7.901
46009,199.896,0.0,8.013
46043,200.2,0.0,8.087
46076,200.437,0.0,8.125
46109,200.565,0.0,8.105
46143,200.622,0.0,8.084
46176,200.924,0.0,8.185
46209,201.172,0.0,8.217
46243,201.314,0.0,8.204
46276,201.429,0.0,8.205
46309,201.5,0.0,8.192
46342,201.619,0.0,8.207
46376,201.876,0.0,8.291
46409,202.24,0.0,8.398
46442,202.358,0.0,8.341
46476,201.609,0.0,7.878
46509,200.39,0.0,7.377
46542,199.694,0.0,7.315
46576,199.811,0.0,7.675
46609,200.266,0.0,8.003
46642,200.433,0.0,8.046
46676,200.277,0.0,7.941
46709,200.344,0.0,7.997
46742,200.64,0.0,8.136
46776,200.77,0.0,8.134
46809,200.709,0.0,8.056
46842,200.758,0.0,8.06
46876,200.84,0.0,8.101
46909,200.925,0.0,8.123
46942,201.011,0.0,8.134
46975,201.023,0.0,8.119
47009,201.212,0.0,8.189
47042,201.607,0.0,8.349
47075,201.911,0.0,8.391
47109,201.985,0.0,8.329
47142,202.051,0.0,8.305
47175,202.306,0.0,8.386
47209,202.542,0.0,8.436
47242,202.637,0.0,8.408
47275,201.948,0.0,7.965
47309,200.488,0.0,7.318
47342,199.593,0.0,7.244
47375,199.564,0.0,7.554
47409,199.857,0.0,7.853
47442,200.071,0.0,7.992
47475,200.054,0.0,7.954
47509,200.202,0.0,8.04
47542,200.509,0.0,8.154
47575,200.574,0.0,8.1
47608,200.339,0.0,7.936
47642,200.369,0.0,7.985
47675,200.564,0.0,8.093
47708,200.782,0.0,8.153
47742,201.093,0.0,8.243
47775,201.38,0.0,8.306
47808,201.519,0.0,8.285
47842,201.67,0.0,8.284
47875,201.857,0.0,8.326
47908,202.13,0.0,8.385
47942,202.412,0.0,8.446
47975,202.483,0.0,8.376
48008,202.633,0.0,8.404
48042,202.8,0.0,8.438
48075,202.967,0.0,8.452
48108,203.027,0.0,8.423
48142,202.091,0.0,7.871
48175,200.615,0.0,7.291
48208,199.685,0.0,7.196
48242,199.639,0.0,7.528
48275,199.843,0.0,7.818
48308,199.894,0.0,7.871
48341,199.776,0.0,7.838
48375,199.866,0.0,7.937
48408,200.131,0.0,8.045
48441,200.276,0.0,8.072
48475,200.27,0.0,8.01
48508,200.235,0.0,7.982
48541,200.38,0.0,8.053
48575,200.595,0.0,8.117
48608,200.82,0.0,8.182
48641,201.075,0.0,8.245
48675,201.329,0.0,8.276
48708,201.712,0.0,8.393
48741,201.899,0.0,8.381
48775,202.046,0.0,8.354
48808,202.104,0.0,8.328
48841,202.277,0.0,8.361
48875,202.455,0.0,8.389
48908,202.664,0.0,8.438
48941,202.802,0.0,8.427
48974,203.016,0.0,8.471
49008,203.241,0.0,8.531
49041,203.326,0.0,8.483
49074,202.399,0.0,7.924
49108,200.966,0.0,7.369
49141,200.05,0.0,7.251
49174,199.753,0.0,7.46
49208,199.864,0.0,7.742
49241,199.993,0.0,7.902
49274,199.907,0.0,7.872
49308,199.975,0.0,7.927
49341,200.282,0.0,8.064
49374,200.451,0.0,8.111
49408,200.356,0.0,8.003
49441,200.224,0.0,7.927
49474,200.364,0.0,8.019
49508,200.743,0.0,8.183
49541,201.081,0.0,8.27
49574,201.272,0.0,8.267
49607,201.504,0.0,8.305
49641,201.736,0.0,8.342
49674,201.808,0.0,8.289
49707,201.823,0.0,8.235
49741,202.028,0.0,8.315
49774,202.229,0.0,8.366
49807,202.494,0.0,8.422
49841,202.704,0.0,8.448
49874,202.766,0.0,8.398
49907,202.992,0.0,8.477
49941,203.265,0.0,8.541
49974,203.375,0.0,8.517
50007,202.823,0.0,8.138
50041,201.211,0.0,7.392
50074,199.986,0.0,7.151
50107,199.65,0.0,7.378
50141,199.85,0.0,7.719
50174,200.108,0.0,7.942
50207,200.239,0.0,8.007
50240,200.306,0.0,8.015
50274,200.748,0.0,8.219
50307,200.908,0.0,8.197
50340,200.744,0.0,8.026
50374,200.708,0.0,8.015
50407,200.875,0.0,8.111
50440,201.19,0.0,8.238
50474,201.439,0.0,8.285
50507,201.597,0.0,8.291
50540,201.772,0.0,8.312
50574,202.004,0.0,8.366
50607,202.25,0.0,8.392
50640,202.464,0.0,8.416
50674,202.584,0.0,8.409
50707,202.768,0.0,8.437
50740,203.051,0.0,8.516
50774,203.129,0.0,8.461
50807,202.961,0.0,8.312
50840,201.72,0.0,7.654
50873,200.359,0.0,7.224
50907,199.792,0.0,7.343
50940,200.017,0.0,7.738
50973,200.313,0.0,7.984
51007,200.53,0.0,8.079
51040,200.774,0.0,8.173
51073,201.022,0.0,8.223
51107,201.133,0.0,8.205
51140,201.102,0.0,8.129
51173,201.112,0.0,8.118
51207,201.422,0.0,8.246
51240,201.715,0.0,8.322
51273,202.043,0.0,8.416
51307,202.246,0.0,8.416
51340,202.419,0.0,8.408
51373,202.622,0.0,8.44
51407,202.72,0.0,8.413
51440,202.825,0.0,8.437
51473,202.954,0.0,8.459
51507,203.132,0.0,8.49
51540,203.389,0.0,8.56
51573,203.619,0.0,8.585
51606,203.803,0.0,8.606
51640,203.803,0.0,8.528
51673,203.283,0.0,8.217
51706,201.896,0.0,7.56
51740,200.626,0.0,7.239
51773,200.066,0.0,7.353
51806,200.223,0.0,7.731
51840,200.354,0.0,7.922
51873,200.366,0.0,7.965
51906,200.31,0.0,7.945
51940,200.544,0.0,8.09
51973,200.791,0.0,8.161
52006,200.731,0.0,8.074
52040,200.632,0.0,7.997
52073,200.619,0.0,8.005
52106,200.757,0.0,8.084
52140,200.997,0.0,8.179
52173,201.219,0.0,8.225
52206,201.485,0.0,8.29
52239,201.763,0.0,8.343
52273,202.009,0.0,8.371
52306,202.266,0.0,8.425
52339,202.437,0.0,8.407
52373,202.617,0.0,8.431
52406,202.907,0.0,8.516
52439,203.02,0.0,8.479
52473,203.153,0.0,8.487
52506,203.311,0.0,8.506
52539,203.414,0.0,8.486
52573,202.509,0.0,7.939
52606,200.919,0.0,7.29
52639,199.907,0.0,7.192
52673,199.797,0.0,7.52
52706,200.055,0.0,7.837
52739,200.138,0.0,7.926
52773,200.115,0.0,7.911
52806,200.238,0.0,7.998
52839,200.545,0.0,8.133
52872,200.588,0.0,8.088
52906,200.499,0.0,8.01
52939,200.565,0.0,8.029
52972,200.895,0.0,8.172
53006,201.176,0.0,8.259
53039,201.493,0.0,8.334
53072,201.824,0.0,8.389
53106,201.99,0.0,8.367
53139,202.211,0.0,8.407
53172,202.355,0.0,8.405
53206,202.382,0.0,8.355
53239,202.491,0.0,8.359
53272,202.72,0.0,8.444
53306,202.883,0.0,8.461
53339,202.229,0.0,8.046
53372,200.606,0.0,7.308
53406,199.683,0.0,7.222
53439,199.59,0.0,7.514
53472,199.751,0.0,7.786
53505,199.869,0.0,7.912
53539,199.823,0.0,7.894
53572,200.124,0.0,8.061
53605,200.45,0.0,8.148
53639,200.455,0.0,8.073
53672,200.394,0.0,8.006
53705,200.532,0.0,8.062
53739,200.796,0.0,8.169
53772,200.966,0.0,8.191
53805,201.025,0.0,8.169
53839,201.189,0.0,8.224
53872,201.456,0.0,8.288
53905,201.692,0.0,8.335
53939,201.98,0.0,8.393
53972,202.144,0.0,8.384
54005,202.252,0.0,8.365
54039,202.284,0.0,8.332
54072,202.378,0.0,8.331
54105,201.294,0.0,7.715
54138,199.693,0.0,7.118
54172,198.86,0.0,7.102
54205,198.74,0.0,7.391
54238,198.918,0.0,7.673
54272,199.13,0.0,7.825
54305,199.18,0.0,7.844
54338,199.438,0.0,7.968
54372,199.672,0.0,8.024
54405,199.641,0.0,7.931
54437,199.497,0.0,7.85
54472,199.539,0.0,7.879
54505,199.578,0.0,7.909
54538,199.843,0.0,8.024
54572,199.982,0.0,8.037
54605,200.143,0.0,8.06
54638,200.369,0.0,8.121
54672,200.469,0.0,8.099
54705,200.602,0.0,8.113
54738,200.876,0.0,8.202
54771,201.166,0.0,8.269
54805,201.267,0.0,8.216
54838,201.347,0.0,8.21
54871,201.461,0.0,8.214
54905,201.531,0.0,8.21
54937,201.097,0.0,7.936
54971,199.583,0.0,7.217
55005,198.306,0.0,6.909
55038,197.908,0.0,7.118
55071,198.054,0.0,7.458
55105,198.272,0.0,7.675
55138,198.328,0.0,7.693
55170,198.479,0.0,7.767
55205,198.745,0.0,7.872
55238,199.007,0.0,7.939
55271,199.015,0.0,7.876
55305,199.017,0.0,7.833
55338,199.067,0.0,7.844
55371,199.349,0.0,7.967
55403,199.577,0.0,8.007
55437,199.87,0.0,8.092
55471,200.146,0.0,8.136
55504,200.394,0.0,8.165
55538,200.381,0.0,8.085
55571,200.688,0.0,8.184
55604,200.906,0.0,8.206
55638,201.096,0.0,8.228
55670,201.28,0.0,8.251
55704,201.542,0.0,8.313
55738,201.806,0.0,8.353
55771,202.042,0.0,8.384
55804,202.198,0.0,8.367
55838,202.486,0.0,8.45
55871,202.86,0.0,8.558
55903,202.579,0.0,8.278
55937,200.812,0.0,7.348
55971,199.423,0.0,7.033
56004,198.895,0.0,7.189
56038,198.886,0.0,7.494
56071,198.896,0.0,7.637
56104,198.87,0.0,7.691
56136,198.876,0.0,7.733
56170,199.167,0.0,7.905
56204,199.543,0.0,8.045
56237,199.572,0.0,7.967
56271,199.493,0.0,7.88
56304,199.596,0.0,7.914
56337,199.756,0.0,7.97
56371,200.155,0.0,8.123
56403,200.592,0.0,8.248
56437,201.01,0.0,8.338
56471,201.285,0.0,8.337
56504,201.438,0.0,8.299
56537,201.675,0.0,8.332
56571,202.07,0.0,8.437
56604,202.342,0.0,8.45
56636,202.596,0.0,8.484
56670,202.872,0.0,8.531
56704,203.006,0.0,8.485
56737,203.109,0.0,8.475
56770,203.236,0.0,8.475
56804,203.45,0.0,8.535
56837,203.58,0.0,8.545
56870,203.697,0.0,8.539
56903,202.847,0.0,8.014
56937,201.233,0.0,7.346
56970,200.158,0.0,7.19
57004,200.105,0.0,7.553
57037,200.276,0.0,7.823
57070,200.363,0.0,7.932
57104,200.253,0.0,7.904
57136,200.268,0.0,7.951
57170,200.596,0.0,8.115
57204,200.794,0.0,8.145
57237,200.686,0.0,8.036
57270,200.619,0.0,7.998
57304,200.745,0.0,8.057
57337,201.083,0.0,8.217
57370,201.328,0.0,8.255
57403,201.602,0.0,8.317
57437,201.96,0.0,8.396
57470,202.107,0.0,8.35
57503,202.18,0.0,8.312
57537,202.442,0.0,8.394
57570,202.621,0.0,8.416
57603,202.892,0.0,8.485
57636,203.086,0.0,8.49
57670,203.289,0.0,8.509
57703,203.503,0.0,8.55
57737,203.71,0.0,8.572
57770,203.994,0.0,8.638
57803,204.275,0.0,8.679
57837,203.369,0.0,8.086
57870,201.841,0.0,7.451
57903,200.978,0.0,7.385
57937,200.933,0.0,7.696
57970,201.151,0.0,7.977
58003,201.283,0.0,8.084
58036,201.31,0.0,8.099
58070,201.48,0.0,8.184
58103,201.631,0.0,8.213
58136,201.629,0.0,8.164
58170,201.557,0.0,8.117
58203,201.616,0.0,8.135
58236,201.891,0.0,8.257
58270,202.193,0.0,8.361
58303,202.475,0.0,8.415
58336,202.697,0.0,8.443
58370,202.9,0.0,8.455
58403,203.116,0.0,8.492
58436,203.327,0.0,8.51
58470,203.41,0.0,8.48
58503,203.5,0.0,8.467
58536,203.658,0.0,8.497
58570,203.855,0.0,8.553
58603,203.985,0.0,8.545
58636,203.31,0.0,8.117
58669,201.83,0.0,7.452
58703,200.847,0.0,7.316
58736,200.712,0.0,7.598
58769,200.886,0.0,7.876
58803,201.095,0.0,8.051
58836,201.209,0.0,8.097
58869,201.336,0.0,8.131
58903,201.515,0.0,8.184
58936,201.611,0.0,8.174
58969,201.573,0.0,8.11
59003,201.566,0.0,8.095
59036,201.785,0.0,8.199
59069,202.034,0.0,8.282
59103,202.316,0.0,8.348
59136,202.615,0.0,8.412
59169,202.905,0.0,8.48
59203,203.129,0.0,8.503
59236,203.433,0.0,8.552
59269,203.652,0.0,8.575
59302,203.916,0.0,8.621
59336,204.231,0.0,8.673
59369,204.356,0.0,8.637
59402,204.516,0.0,8.648
59436,204.67,0.0,8.657
59469,204.886,0.0,8.704
59502,204.58,0.0,8.456
59536,203.208,0.0,7.748
59569,201.84,0.0,7.345
59602,201.283,0.0,7.452
59636,201.314,0.0,7.795
59669,201.454,0.0,8.002
59702,201.391,0.0,7.996
59736,201.148,0.0,7.923
59769,201.325,0.0,8.084
59802,201.618,0.0,8.206
59836,201.537,0.0,8.117
59869,201.396,0.0,8.035
59902,201.503,0.0,8.11
59935,201.805,0.0,8.242
59969,202.083,0.0,8.32
60002,202.249,0.0,8.324
60035,202.335,0.0,8.302
60069,202.481,0.0,8.333
60102,202.701,0.0,8.385
60135,202.889,0.0,8.414
60169,203.031,0.0,8.419
60202,203.077,0.0,8.376
60235,203.248,0.0,8.425
60269,203.478,0.0,8.49
60302,203.605,0.0,8.471
60335,203.716,0.0,8.475
60369,203.789,0.0,8.471
60402,204.078,0.0,8.582
60435,204.17,0.0,8.531
60469,203.119,0.0,7.911
60502,201.466,0.0,7.269
60535,200.435,0.0,7.163
60569,200.232,0.0,7.451
60602,200.325,0.0,7.717
60635,200.314,0.0,7.817
60668,200.222,0.0,7.814
60702,200.268,0.0,7.88
60735,200.511,0.0,8.012
60768,200.592,0.0,8.014
60802,200.394,0.0,7.878
60835,200.254,0.0,7.84
60868,200.426,0.0,7.958
60902,200.719,0.0,8.083
60935,201.053,0.0,8.178
60968,201.354,0.0,8.235
61002,201.531,0.0,8.225
61035,201.638,0.0,8.199
61068,201.685,0.0,8.171
61102,201.619,0.0,8.101
61135,201.741,0.0,8.143
61168,201.915,0.0,8.191
61202,202.125,0.0,8.266
61235,202.485,0.0,8.376
61268,202.692,0.0,8.372
61301,202.705,0.0,8.303
61335,202.88,0.0,8.345
61368,203.063,0.0,8.376
61401,202.97,0.0,8.267
61435,201.902,0.0,7.677
61468,200.252,0.0,7.072
61501,199.293,0.0,7.007
61535,199.047,0.0,7.253
61568,199.185,0.0,7.555
61601,199.239,0.0,7.672
61635,199.187,0.0,7.671
61668,199.371,0.0,7.796
61701,199.693,0.0,7.93
61735,199.709,0.0,7.859
61768,199.5,0.0,7.73
61801,199.475,0.0,7.741
61835,199.629,0.0,7.835
61868,199.87,0.0,7.928
61901,200.107,0.0,7.989
61934,200.279,0.0,7.998
61968,200.428,0.0,8.009
62001,200.563,0.0,8.027
62034,200.775,0.0,8.071
62068,200.945,0.0,8.095
62101,201.09,0.0,8.094
62134,201.239,0.0,8.112
62168,201.351,0.0,8.113
62201,201.544,0.0,8.154
62234,201.765,0.0,8.21
62268,201.997,0.0,8.26
62301,202.113,0.0,8.229
62334,200.988,0.0,7.574
62368,199.428,0.0,6.984
62401,198.675,0.0,7.004
62434,198.748,0.0,7.374
62468,198.94,0.0,7.606
62501,198.938,0.0,7.656
62534,199.041,0.0,7.723
62567,199.161,0.0,7.767
62601,199.274,0.0,7.793
62634,199.258,0.0,7.739
62667,199.076,0.0,7.645
62701,199.125,0.0,7.703
62734,199.43,0.0,7.845
62767,199.682,0.0,7.914
62801,199.954,0.0,7.986
62834,200.032,0.0,7.934
62867,200.195,0.0,7.959
62901,200.323,0.0,7.958
62934,200.493,0.0,7.999
62967,200.631,0.0,8.006
63001,200.726,0.0,7.997
63034,200.996,0.0,8.091
63067,201.22,0.0,8.128
63101,201.615,0.0,8.25
63134,202.011,0.0,8.337
63167,202.169,0.0,8.277
63200,201.436,0.0,7.791
63234,199.826,0.0,7.08
63267,198.861,0.0,6.958
63300,198.767,0.0,7.273
63334,199.169,0.0,7.676
63367,199.78,0.0,7.998
63400,200.311,0.0,8.142
63434,200.619,0.0,8.176
63467,200.884,0.0,8.19
63500,201.02,0.0,8.158
63534,200.891,0.0,8.021
63567,200.734,0.0,7.954
63600,200.779,0.0,7.991
63634,200.728,0.0,7.977
63667,200.647,0.0,7.953
63700,200.568,0.0,7.939
63734,200.399,0.0,7.895
63767,200.278,0.0,7.866
63800,200.13,0.0,7.828
63834,199.9,0.0,7.772
63867,199.735,0.0,7.764
63900,199.656,0.0,7.783
63933,199.562,0.0,7.778
63967,199.561,0.0,7.809
64000,199.584,0.0,7.831
64033,199.607,0.0,7.857
64067,199.587,0.0,7.834
64100,199.58,0.0,7.812
64133,199.255,0.0,7.656
64167,197.758,0.0,6.92
64200,196.221,0.0,6.491
64233,195.321,0.0,6.49
64267,195.185,0.0,6.794
64300,195.484,0.0,7.153
64333,195.532,0.0,7.198
64367,194.973,0.0,6.953
64400,194.844,0.0,7.009
64433,194.963,0.0,7.133
64467,194.853,0.0,7.095
64500,194.608,0.0,6.995
64533,194.305,0.0,6.906
64566,194.243,0.0,6.969
64600,194.327,0.0,7.053
64633,194.376,0.0,7.078
64666,194.405,0.0,7.093
64700,194.563,0.0,7.159
64733,194.769,0.0,7.192
64766,194.996,0.0,7.244
64800,195.223,0.0,7.269
64833,195.44,0.0,7.312
64866,195.823,0.0,7.424
64900,196.107,0.0,7.453
64933,196.253,0.0,7.413
64966,196.067,0.0,7.267
65000,195.867,0.0,7.183
65033,195.676,0.0,7.115
65066,194.567,0.0,6.597
65100,193.212,0.0,6.179
65133,192.535,0.0,6.224
65166,192.493,0.0,6.508
65199,192.604,0.0,6.734
65233,192.736,0.0,6.837
65266,192.783,0.0,6.858
65299,192.717,0.0,6.827
65333,192.706,0.0,6.831
65366,192.474,0.0,6.723
65399,192.084,0.0,6.595
65433,191.837,0.0,6.578
65466,191.983,0.0,6.737
65499,191.954,0.0,6.728
65533,191.877,0.0,6.706
65566,191.827,0.0,6.69
65599,191.877,0.0,6.737
65633,191.962,0.0,6.768
65666,192.18,0.0,6.848
65699,192.403,0.0,6.898
65733,192.798,0.0,7.026
65766,193.161,0.0,7.078
65799,193.657,0.0,7.2
65832,193.444,0.0,6.912
65866,192.227,0.0,6.298
65899,191.276,0.0,6.093
65932,191.216,0.0,6.364
65966,191.74,0.0,6.75
65999,192.141,0.0,6.9
66032,192.333,0.0,6.907
66066,192.588,0.0,6.982
66099,192.814,0.0,6.99
66132,192.668,0.0,6.836
66166,192.492,0.0,6.76
66199,192.469,0.0,6.78
66232,192.482,0.0,6.801
66266,192.544,0.0,6.839
66299,192.804,0.0,6.941
66332,192.959,0.0,6.95
66366,192.877,0.0,6.873
66399,192.894,0.0,6.884
66432,192.872,0.0,6.854
66465,192.919,0.0,6.877
66499,192.98,0.0,6.891
66532,193.23,0.0,6.985
66565,193.513,0.0,7.063
66599,193.693,0.0,7.055
66632,193.056,0.0,6.658
66665,191.65,0.0,6.077
66699,190.59,0.0,5.897
66732,190.594,0.0,6.262
66765,190.98,0.0,6.591
66799,191.269,0.0,6.719
66832,191.386,0.0,6.735
66865,191.638,0.0,6.798
66899,192.064,0.0,6.934
66932,192.516,0.0,7.039
66965,192.665,0.0,6.976
66999,192.793,0.0,6.945
67032,193.022,0.0,7.001
67065,193.217,0.0,7.035
67098,193.705,0.0,7.197
67132,194.03,0.0,7.224
67165,194.162,0.0,7.163
67198,194.314,0.0,7.188
67232,194.698,0.0,7.287
67265,195.014,0.0,7.363
67298,195.226,0.0,7.359
67332,195.378,0.0,7.348
67365,195.576,0.0,7.36
67398,195.635,0.0,7.313
67432,195.767,0.0,7.341
67465,196.078,0.0,7.432
67498,196.164,0.0,7.393
67532,195.53,0.0,7.018
67565,194.045,0.0,6.364
67598,192.961,0.0,6.187
67632,192.634,0.0,6.39
67665,192.811,0.0,6.708
67698,193.084,0.0,6.909
67731,193.098,0.0,6.885
67765,193.007,0.0,6.852
67798,193.36,0.0,7.047
67831,193.699,0.0,7.121
67865,193.774,0.0,7.075
67898,193.727,0.0,7.004
67931,193.882,0.0,7.052
67965,194.089,0.0,7.131
67998,194.48,0.0,7.249
68031,194.83,0.0,7.318
68065,195.006,0.0,7.308
68098,195.322,0.0,7.37
68131,195.642,0.0,7.428
68165,195.867,0.0,7.426
68198,196.057,0.0,7.427
68231,196.392,0.0,7.512
68265,196.605,0.0,7.517
68298,196.746,0.0,7.49
68331,196.982,0.0,7.546
68365,197.06,0.0,7.501
68398,197.121,0.0,7.481
68431,196.006,0.0,6.849
68464,194.572,0.0,6.359
68498,194.033,0.0,6.476
68531,194.148,0.0,6.807
68564,194.396,0.0,7.028
68598,194.636,0.0,7.146
68631,194.647,0.0,7.1
68664,194.9,0.0,7.222
68698,195.191,0.0,7.302
68731,195.221,0.0,7.233
68764,195.248,0.0,7.209
68798,195.415,0.0,7.264
68831,195.685,0.0,7.355
68864,195.986,0.0,7.426
68898,196.205,0.0,7.438
68931,196.383,0.0,7.446
68964,196.656,0.0,7.505
68998,196.969,0.0,7.583
69031,197.199,0.0,7.592
69064,197.41,0.0,7.604
69097,197.669,0.0,7.641
69131,197.958,0.0,7.706
69164,198.313,0.0,7.772
69197,198.473,0.0,7.737
69231,198.532,0.0,7.702
69264,198.184,0.0,7.463
69297,196.889,0.0,6.85
69331,195.823,0.0,6.581
69364,195.588,0.0,6.81
69397,195.812,0.0,7.114
69431,196.061,0.0,7.3
69464,196.178,0.0,7.338
69497,196.256,0.0,7.346
69531,196.396,0.0,7.381
69564,196.561,0.0,7.432
69597,196.653,0.0,7.42
69631,196.543,0.0,7.326
69664,196.614,0.0,7.368
69697,196.886,0.0,7.479
69730,197.086,0.0,7.519
69764,197.338,0.0,7.575
69797,197.665,0.0,7.669
69830,197.856,0.0,7.668
69864,198.154,0.0,7.73
69897,198.358,0.0,7.736
69930,198.426,0.0,7.683
69964,198.625,0.0,7.733
69997,198.949,0.0,7.837
70030,199.226,0.0,7.886
70064,199.224,0.0,7.763
70097,197.883,0.0,7.015
70130,196.433,0.0,6.552
70164,195.814,0.0,6.653
70197,196.02,0.0,7.058
70230,196.34,0.0,7.317
70264,196.423,0.0,7.329
70297,196.519,0.0,7.371
70330,196.748,0.0,7.446
70363,196.982,0.0,7.504
70397,196.811,0.0,7.353
70430,196.772,0.0,7.341
70463,196.947,0.0,7.422
70497,197.338,0.0,7.59
70530,197.651,0.0,7.651
70562,197.938,0.0,7.691
70597,198.248,0.0,7.739
70630,198.512,0.0,7.774
70663,198.648,0.0,7.733
70697,198.827,0.0,7.762
70730,199.121,0.0,7.835
70763,199.312,0.0,7.845
70797,199.238,0.0,7.741
70830,199.323,0.0,7.755
70863,199.199,0.0,7.664
70897,199.008,0.0,7.575
70930,197.916,0.0,7.029
70963,196.411,0.0,6.533
70996,195.49,0.0,6.487
71030,195.344,0.0,6.774
71062,195.45,0.0,7.015
71096,195.638,0.0,7.178
71130,195.699,0.0,7.207
71163,195.701,0.0,7.205
71196,195.786,0.0,7.223
71230,195.696,0.0,7.156
71263,195.489,0.0,7.064
71295,195.522,0.0,7.124
71330,195.754,0.0,7.234
71363,196.035,0.0,7.336
71396,196.242,0.0,7.368
71430,196.536,0.0,7.446
71463,196.783,0.0,7.465
71496,196.938,0.0,7.461
71530,197.275,0.0,7.554
71562,197.5,0.0,7.569
71596,197.686,0.0,7.58
71629,197.956,0.0,7.636
71663,198.194,0.0,7.668
71696,198.133,0.0,7.53
71729,196.9,0.0,6.868
71763,195.682,0.0,6.51
71795,195.252,0.0,6.651
71829,195.594,0.0,7.059
71863,196.082,0.0,7.348
71896,196.283,0.0,7.361
71929,196.466,0.0,7.405
71963,196.705,0.0,7.461
71996,196.726,0.0,7.377
72028,196.613,0.0,7.276
72062,196.564,0.0,7.275
72096,196.777,0.0,7.394
72129,197.087,0.0,7.489
72163,197.281,0.0,7.511
72196,197.593,0.0,7.594
72229,197.857,0.0,7.624
72263,198.014,0.0,7.611
72295,198.288,0.0,7.67
72329,198.553,0.0,7.718
72362,198.771,0.0,7.73
72396,199.057,0.0,7.797
72429,199.06,0.0,7.7
72462,197.871,0.0,7.041
72496,196.448,0.0,6.546
72528,195.992,0.0,6.705
72562,196.134,0.0,7.02
72596,196.307,0.0,7.208
72629,196.694,0.0,7.417
72662,196.957,0.0,7.473
72696,197.148,0.0,7.496
72729,197.377,0.0,7.535
72761,197.314,0.0,7.423
72795,197.322,0.0,7.408
72829,197.557,0.0,7.516
72862,197.885,0.0,7.624
72896,198.176,0.0,7.687
72929,198.43,0.0,7.719
72962,198.673,0.0,7.749
72995,199.016,0.0,7.83
73028,199.231,0.0,7.831
73062,199.328,0.0,7.799
73095,199.583,0.0,7.863
73129,199.793,0.0,7.887
73162,200.036,0.0,7.932
73195,200.28,0.0,7.968
73229,200.068,0.0,7.762
73261,198.591,0.0,6.999
73295,197.252,0.0,6.637
73329,196.628,0.0,6.729
73362,196.609,0.0,7.024
73395,196.859,0.0,7.291
73429,196.987,0.0,7.369
73462,196.857,0.0,7.307
73495,197.127,0.0,7.473
73528,197.514,0.0,7.589
73562,197.401,0.0,7.454
73595,197.214,0.0,7.354
73628,197.254,0.0,7.399
73662,197.662,0.0,7.59
73695,198.22,0.0,7.78
73728,198.539,0.0,7.804
73761,198.543,0.0,7.697
73795,198.793,0.0,7.766
73828,199.095,0.0,7.832
73862,199.445,0.0,7.908
73895,199.821,0.0,7.984
73928,199.969,0.0,7.941
73962,199.905,0.0,7.831
73995,199.976,0.0,7.847
74028,200.272,0.0,7.967
74062,200.539,0.0,8.016
74095,199.837,0.0,7.564
74128,198.059,0.0,6.77
74162,196.861,0.0,6.577
74195,196.575,0.0,6.851
74228,196.787,0.0,7.2
74261,196.971,0.0,7.371
74295,197.123,0.0,7.445
74328,197.252,0.0,7.488
74361,197.65,0.0,7.649
74395,197.882,0.0,7.661
74428,197.841,0.0,7.546
74461,197.775,0.0,7.495
74495,197.878,0.0,7.539
74528,198.176,0.0,7.682
74561,198.383,0.0,7.707
74595,198.546,0.0,7.715
74628,198.772,0.0,7.766
74661,198.837,0.0,7.739
74695,199.0,0.0,7.772
74728,199.179,0.0,7.796
74761,199.377,0.0,7.829
74795,199.442,0.0,7.797
74828,199.507,0.0,7.793
74861,199.635,0.0,7.828
74894,199.947,0.0,7.923
74928,200.2,0.0,7.973
74961,200.12,0.0,7.827
74994,198.796,0.0,7.101
75028,197.138,0.0,6.568
75061,196.407,0.0,6.646
75094,196.592,0.0,7.07
75128,196.98,0.0,7.377
75161,197.145,0.0,7.452
75194,197.319,0.0,7.518
75228,197.667,0.0,7.635
75261,197.771,0.0,7.587
75294,197.603,0.0,7.446
75328,197.347,0.0,7.327
75361,197.013,0.0,7.229
75394,197.155,0.0,7.383
75428,197.508,0.0,7.565
75461,197.817,0.0,7.651
75494,198.03,0.0,7.661
75527,198.168,0.0,7.659
75561,198.308,0.0,7.644
75594,198.6,0.0,7.736
75627,198.698,0.0,7.692
75661,198.98,0.0,7.772
75694,199.182,0.0,7.797
75727,199.342,0.0,7.807
75761,198.847,0.0,7.465
75794,197.275,0.0,6.734
75827,196.141,0.0,6.532
75861,196.047,0.0,6.852
75894,196.209,0.0,7.137
75927,196.319,0.0,7.253
75961,196.462,0.0,7.346
75994,196.58,0.0,7.381
76027,196.815,0.0,7.46
76061,196.911,0.0,7.441
76094,196.8,0.0,7.341
76127,196.827,0.0,7.348
76160,197.015,0.0,7.448
76194,197.292,0.0,7.54
76227,197.476,0.0,7.556
76260,197.713,0.0,7.621
76294,198.085,0.0,7.722
76327,198.314,0.0,7.727
76360,198.631,0.0,7.791
76394,198.944,0.0,7.846
76427,199.163,0.0,7.836
76460,199.331,0.0,7.836
76494,199.537,0.0,7.875
76527,199.72,0.0,7.875
76560,199.744,0.0,7.828
76594,199.2,0.0,7.503
76627,197.5,0.0,6.733
76660,196.142,0.0,6.443
76694,195.751,0.0,6.69
76727,195.898,0.0,7.03
76760,196.184,0.0,7.262
76794,196.279,0.0,7.31
76827,196.361,0.0,7.335
76860,196.633,0.0,7.454
76893,196.755,0.0,7.445
76927,196.739,0.0,7.393
76960,196.788,0.0,7.386
76993,196.753,0.0,7.37
77027,196.919,0.0,7.461
77060,197.237,0.0,7.556
77093,197.398,0.0,7.575
77127,197.74,0.0,7.675
77160,197.947,0.0,7.68
77193,198.157,0.0,7.709
77227,198.423,0.0,7.745
77260,198.636,0.0,7.764
77293,198.875,0.0,7.811
77327,199.066,0.0,7.807
77360,199.214,0.0,7.827
77393,199.307,0.0,7.793
77427,199.501,0.0,7.846
77460,199.504,0.0,7.783
77493,198.356,0.0,7.143
77526,196.698,0.0,6.548
77560,195.702,0.0,6.493
77593,195.764,0.0,6.894
77626,196.053,0.0,7.197
77660,196.207,0.0,7.299
77693,196.138,0.0,7.246
77726,196.107,0.0,7.257
77760,196.256,0.0,7.334
77793,196.119,0.0,7.247
77826,196.201,0.0,7.302
77860,196.405,0.0,7.381
77893,196.472,0.0,7.375
77926,196.606,0.0,7.416
77960,196.945,0.0,7.528
77993,197.189,0.0,7.572
78026,197.599,0.0,7.678
78060,197.843,0.0,7.689
78093,198.077,0.0,7.706
78126,198.286,0.0,7.718
78159,198.575,0.0,7.772
78193,198.838,0.0,7.808
78226,198.967,0.0,7.773
78259,199.113,0.0,7.773
78293,199.182,0.0,7.763
78326,199.209,0.0,7.73
78359,197.944,0.0,7.025
78393,196.409,0.0,6.521
78426,195.69,0.0,6.574
78459,195.746,0.0,6.95
78493,196.065,0.0,7.235
78526,196.291,0.0,7.36
78559,196.378,0.0,7.372
78593,196.641,0.0,7.457
78626,196.767,0.0,7.45
78659,196.546,0.0,7.275
78693,196.433,0.0,7.252
78726,196.584,0.0,7.355
78759,196.894,0.0,7.487
78792,197.172,0.0,7.562
78826,197.453,0.0,7.618
78859,197.679,0.0,7.628
78892,197.99,0.0,7.7
78926,198.163,0.0,7.681
78959,198.309,0.0,7.669
78992,198.53,0.0,7.717
79026,198.747,0.0,7.76
79059,198.88,0.0,7.755
79092,198.985,0.0,7.741
79126,198.166,0.0,7.243
79159,196.483,0.0,6.547
79192,195.415,0.0,6.443
79226,195.301,0.0,6.754
79259,195.569,0.0,7.086
79292,195.671,0.0,7.176
79326,195.786,0.0,7.248
79359,196.204,0.0,7.442
79392,196.536,0.0,7.491
79425,196.523,0.0,7.385
79459,196.343,0.0,7.259
79492,196.515,0.0,7.356
79525,196.796,0.0,7.465
79559,197.073,0.0,7.546
79592,197.335,0.0,7.594
79625,197.511,0.0,7.584
79659,197.694,0.0,7.607
79692,197.887,0.0,7.628
79725,198.163,0.0,7.687
79759,198.431,0.0,7.741
79792,198.769,0.0,7.806
79825,199.166,0.0,7.901
79859,199.325,0.0,7.853
79892,199.514,0.0,7.858
79925,199.686,0.0,7.856
79959,199.513,0.0,7.68
79992,197.975,0.0,6.895
80025,196.261,0.0,6.406
80059,195.483,0.0,6.478
80092,195.432,0.0,6.804
80125,195.687,0.0,7.114
80158,195.872,0.0,7.231
80192,195.649,0.0,7.101
80225,195.949,0.0,7.292
80258,196.373,0.0,7.452
80292,196.43,0.0,7.377
80325,196.127,0.0,7.187
80358,196.102,0.0,7.211
80392,196.331,0.0,7.339
80425,196.633,0.0,7.442
80458,196.93,0.0,7.526
80492,197.263,0.0,7.588
80525,197.663,0.0,7.67
80558,197.944,0.0,7.689
80592,198.18,0.0,7.699
80625,198.431,0.0,7.726
80658,198.608,0.0,7.725
80692,198.72,0.0,7.707
80725,198.835,0.0,7.717
80758,198.986,0.0,7.734
80791,199.157,0.0,7.77
80825,199.211,0.0,7.733
80858,199.051,0.0,7.606
80891,197.621,0.0,6.858
80925,196.229,0.0,6.478
80958,195.674,0.0,6.615
80991,195.872,0.0,7.008
81025,195.988,0.0,7.166
81058,196.12,0.0,7.251
81091,196.19,0.0,7.27
81125,196.538,0.0,7.434
81158,196.788,0.0,7.465
81191,196.624,0.0,7.31
81225,196.459,0.0,7.226
81258,196.549,0.0,7.304
81291,196.827,0.0,7.428
81325,197.142,0.0,7.525
81358,197.495,0.0,7.615
81391,197.859,0.0,7.694
81424,197.944,0.0,7.615
81458,197.875,0.0,7.529
81491,198.138,0.0,7.611
81524,198.395,0.0,7.677
81558,198.531,0.0,7.668
81591,198.739,0.0,7.714
81624,198.99,0.0,7.764
81658,199.216,0.0,7.795
81691,199.413,0.0,7.803
81724,199.699,0.0,7.864
81758,199.164,0.0,7.468
81791,197.349,0.0,6.641
81824,196.127,0.0,6.444
81858,195.945,0.0,6.745
81891,196.277,0.0,7.138
81924,196.535,0.0,7.314
81958,196.624,0.0,7.326
81991,196.796,0.0,7.405
82024,197.162,0.0,7.514
82057,197.093,0.0,7.393
82091,196.857,0.0,7.25
82124,196.847,0.0,7.284
82157,197.116,0.0,7.435
82191,197.491,0.0,7.562
82224,197.754,0.0,7.605
82257,198.068,0.0,7.669
82291,198.261,0.0,7.652
82324,198.585,0.0,7.738
82357,198.873,0.0,7.774
82391,199.009,0.0,7.735
82424,199.096,0.0,7.702
82457,199.395,0.0,7.804
82491,199.676,0.0,7.849
82524,199.749,0.0,7.8
82557,198.669,0.0,7.16
82591,196.854,0.0,6.48
82624,195.867,0.0,6.438
82657,195.809,0.0,6.791
82690,196.171,0.0,7.15
82724,196.404,0.0,7.284
82757,196.596,0.0,7.348
82790,197.03,0.0,7.521
82824,197.185,0.0,7.484
82857,197.161,0.0,7.38
82890,196.954,0.0,7.268
82924,197.031,0.0,7.323
82957,197.34,0.0,7.467
82990,197.59,0.0,7.528
83024,197.917,0.0,7.606
83057,198.162,0.0,7.628
83090,198.511,0.0,7.725
83124,198.864,0.0,7.773
83157,199.087,0.0,7.771
83190,199.23,0.0,7.749
83224,199.528,0.0,7.817
83257,199.836,0.0,7.88
83290,199.92,0.0,7.833
83323,200.155,0.0,7.882
83357,200.369,0.0,7.906
83390,200.365,0.0,7.808
83423,198.948,0.0,7.039
83457,197.122,0.0,6.457
83490,196.204,0.0,6.479
83523,196.248,0.0,6.866
83557,196.475,0.0,7.141
83590,196.579,0.0,7.237
83623,196.582,0.0,7.25
83657,196.782,0.0,7.348
83690,197.039,0.0,7.436
83723,197.153,0.0,7.429
83757,197.186,0.0,7.386
83790,197.268,0.0,7.401
83823,197.504,0.0,7.479
83857,197.783,0.0,7.562
83890,198.152,0.0,7.662
83923,198.45,0.0,7.716
83956,198.659,0.0,7.71
83990,198.907,0.0,7.743
84023,199.127,0.0,7.764
84056,199.306,0.0,7.76
84090,199.454,0.0,7.772
84123,199.679,0.0,7.811
84156,199.837,0.0,7.803
84190,200.054,0.0,7.864
84223,200.362,0.0,7.934
84256,200.568,0.0,7.937
84290,200.407,0.0,7.773
84323,198.812,0.0,6.927
84356,197.099,0.0,6.463
84390,196.229,0.0,6.497
84423,196.216,0.0,6.858
84456,196.299,0.0,7.068
84490,196.434,0.0,7.215
84523,196.358,0.0,7.188
84556,196.534,0.0,7.297
84590,196.883,0.0,7.431
84623,196.962,0.0,7.382
84656,196.851,0.0,7.28
84689,196.827,0.0,7.27
84723,197.043,0.0,7.372
84756,197.406,0.0,7.516
84789,197.807,0.0,7.62
84823,198.083,0.0,7.639
84856,198.255,0.0,7.621
84889,198.497,0.0,7.67
84923,198.667,0.0,7.657
84956,198.875,0.0,7.692
84989,199.033,0.0,7.701
85023,199.293,0.0,7.762
85056,199.469,0.0,7.765
85089,199.58,0.0,7.749
85123,199.884,0.0,7.843
85156,200.084,0.0,7.855
85189,199.742,0.0,7.581
85223,197.935,0.0,6.706
85256,196.406,0.0,6.364
85289,195.818,0.0,6.551
85322,196.134,0.0,6.991
85356,196.396,0.0,7.213
85389,196.629,0.0,7.325
85422,196.725,0.0,7.334
85456,197.106,0.0,7.483
85489,197.17,0.0,7.406
85522,196.898,0.0,7.22
85556,196.871,0.0,7.256
85589,196.965,0.0,7.311
85622,197.07,0.0,7.349
85656,197.351,0.0,7.477
85689,197.629,0.0,7.539
85722,197.888,0.0,7.589
85756,198.112,0.0,7.61
85789,198.192,0.0,7.553
85822,198.281,0.0,7.55
85856,198.499,0.0,7.624
85889,198.858,0.0,7.725
85922,199.014,0.0,7.699
85955,198.673,0.0,7.446
85989,197.0,0.0,6.612
86022,195.514,0.0,6.265
86055,194.935,0.0,6.418
86089,195.134,0.0,6.84
86122,195.475,0.0,7.102
86155,195.61,0.0,7.159
86189,195.765,0.0,7.215
86222,196.092,0.0,7.318
86255,196.038,0.0,7.197
86289,195.914,0.0,7.123
86322,195.893,0.0,7.117
86355,196.205,0.0,7.278
86389,196.473,0.0,7.355
86422,196.695,0.0,7.39
86455,196.867,0.0,7.407
86489,197.124,0.0,7.463
86522,197.362,0.0,7.493
86555,197.598,0.0,7.53
86588,197.785,0.0,7.549
86622,198.064,0.0,7.602
86655,198.361,0.0,7.654
86687,198.611,0.0,7.68
86722,198.631,0.0,7.601
86755,197.825,0.0,7.127
86788,195.885,0.0,6.312
86822,194.552,0.0,6.135
86855,194.173,0.0,6.396
86888,194.506,0.0,6.835
86922,194.713,0.0,6.987
86955,194.59,0.0,6.919
86988,194.701,0.0,7.006
87022,195.028,0.0,7.144
87055,195.127,0.0,7.117
87088,195.049,0.0,7.033
87122,195.116,0.0,7.064
87155,195.212,0.0,7.079
87187,195.327,0.0,7.129
87221,195.67,0.0,7.251
87255,196.037,0.0,7.348
87288,196.365,0.0,7.399
87321,196.564,0.0,7.397
87355,196.767,0.0,7.416
87388,197.015,0.0,7.455
87420,197.215,0.0,7.455
87455,197.322,0.0,7.438
87488,197.458,0.0,7.458
87521,197.63,0.0,7.48
87555,197.731,0.0,7.475
87588,197.51,0.0,7.306
87621,195.976,0.0,6.52
87655,194.264,0.0,6.059
