time,R,G,B
0,220.824,25.03,68.832
34,220.839,24.964,68.839
70,220.911,25.083,69.083
99,221.059,25.245,69.207
124,221.451,25.521,69.323
146,221.554,25.643,69.436
192,221.72,25.883,69.513
225,222.232,26.384,69.908
253,222.489,26.712,70.152
303,222.437,26.851,70.121
333,222.363,26.964,69.903
368,222.47,27.099,69.998
390,222.428,27.134,70.127
427,222.419,27.24,70.061
498,222.741,27.599,70.104
528,222.598,27.592,70.111
565,222.144,27.014,69.871
591,221.675,26.253,69.592
627,221.497,25.826,69.42
656,221.512,25.722,69.379
684,221.477,25.712,69.343
734,221.891,26.005,69.55
759,221.966,26.144,69.569
786,221.926,26.279,69.575
827,221.97,26.374,69.598
854,221.762,26.283,69.478
882,221.654,26.189,69.406
944,221.574,26.07,69.382
949,221.768,26.25,69.539
1018,222.054,26.538,69.609
1035,222.013,26.604,69.597
1093,221.988,26.626,69.617
1098,222.013,26.688,69.573
1124,221.964,26.718,69.589
1147,221.865,26.669,69.498
1171,221.923,26.739,69.404
1229,222.086,26.893,69.521
1261,222.265,27.21,69.638
1319,222.112,27.216,69.495
1350,221.771,26.959,69.281
1376,221.104,26.219,68.81
1440,220.119,24.548,68.253
1479,219.848,24.15,68.126
1503,219.753,24.032,67.952
1526,220.065,24.386,67.845
1550,219.928,24.342,67.799
1575,219.746,24.172,67.705
1630,219.782,24.147,67.692
1658,219.958,24.371,67.732
1687,219.984,24.424,67.766
1742,220.026,24.408,67.949
1743,220.196,24.581,68.011
1779,220.122,24.736,67.906
1805,220.116,24.799,67.836
1857,220.298,24.871,67.889
1887,220.461,25.013,67.999
1917,220.783,25.456,68.236
1942,221.125,25.888,68.467
1979,221.411,26.257,68.712
2008,221.792,26.701,69.079
2048,222.053,27.058,69.428
2124,222.476,27.506,69.748
2136,223.296,28.314,70.167
2180,223.939,28.999,70.792
2223,223.886,29.146,70.947
2266,223.647,28.974,70.453
2314,223.195,28.349,70.234
2355,223.363,28.543,70.343
2405,223.435,28.579,70.405
2440,223.553,28.71,70.554
2465,223.541,28.803,70.512
2473,223.569,28.823,70.537
2523,223.416,28.642,70.468
2562,223.35,28.561,70.464
2611,223.299,28.531,70.299
2648,223.32,28.53,70.256
2649,223.493,28.734,70.389
2695,223.869,29.196,70.652
2734,224.297,29.904,70.813
2738,224.567,30.461,71.019
2818,224.606,30.706,71.137
2826,224.725,31.036,71.127
2864,224.89,31.286,71.201
2898,224.934,31.396,71.276
2910,225.027,31.538,71.288
2963,224.432,30.891,70.819
3002,223.122,29.186,70.022
3025,222.302,27.762,69.428
3067,221.68,26.788,69.188
3142,220.934,25.637,68.678
3171,220.705,25.279,68.556
3184,220.667,25.215,68.197
3231,220.263,24.873,67.92
3272,219.544,24.199,67.389
3305,218.695,23.431,66.762
3315,217.776,22.599,66.128
3355,217.394,22.141,65.843
3397,216.615,21.384,65.673
3440,216.797,21.315,65.791
3442,217.268,21.666,65.984
3488,217.511,21.911,66.199
3517,217.839,22.231,66.356
3542,218.082,22.481,66.479
3589,218.55,22.818,66.607
3616,218.753,23.065,66.787
3646,219.06,23.502,66.938
3682,219.322,23.807,67.076
3704,219.713,24.119,67.332
3756,219.828,24.391,67.392
3785,219.566,24.14,67.391
3807,219.072,23.542,67.043
3861,218.952,23.205,66.721
3867,218.743,22.891,66.6
3927,218.003,22.232,66.532
3934,218.249,22.374,66.675
3995,218.686,22.824,66.873
4004,218.753,22.986,66.922
4067,218.867,23.147,66.997
4070,218.946,23.248,66.976
4132,218.886,23.162,66.862
4136,218.914,23.185,66.851
4196,218.948,23.284,66.854
4200,218.939,23.28,66.845
4266,218.8,23.181,66.883
4270,218.944,23.333,66.975
4326,219.396,23.727,67.124
4356,219.483,23.873,67.244
4391,219.487,23.915,67.247
4421,219.46,23.937,67.222
4454,219.36,23.869,67.043
4482,219.578,24.025,67.216
4525,219.912,24.392,67.391
4557,219.944,24.497,67.458
4592,219.583,24.273,67.184
4627,218.894,23.52,66.72
4657,218.097,22.538,66.29
4689,217.836,22.075,66.077
4728,217.588,21.874,66.004
4761,217.425,21.711,65.879
4794,217.051,21.448,65.666
4828,217.178,21.508,65.734
4859,217.635,21.87,65.91
4891,217.742,22.06,65.988
4926,217.592,22.0,65.998
4958,217.686,22.073,66.03
4994,217.719,22.105,66.057
5026,217.71,22.131,66.078
5065,217.692,22.107,66.122
5093,217.606,22.032,66.095
5105,217.577,22.069,65.945
5168,217.568,22.064,65.987
5242,217.63,22.173,65.918
5246,217.952,22.428,66.132
5307,218.048,22.583,66.185
5311,218.204,22.664,66.289
5368,218.231,22.776,66.337
5371,217.991,22.671,66.061
5434,217.562,22.272,65.836
5437,217.059,21.604,65.655
5509,216.911,21.267,65.596
5537,216.859,21.231,65.508
5540,216.89,21.286,65.488
5604,217.03,21.44,65.399
5607,217.207,21.634,65.544
5674,217.349,21.713,65.741
5742,217.634,22.102,65.91
5811,217.691,22.176,65.879
5846,217.559,22.124,66.008
5874,217.702,22.269,66.085
5906,218.187,22.658,66.268
5975,218.119,22.682,66.24
5978,217.901,22.549,66.089
6003,217.95,22.61,66.118
6049,218.441,22.961,66.249
6081,218.629,23.222,66.381
6109,218.605,23.325,66.549
6140,218.881,23.618,66.693
6166,219.209,23.998,66.697
6213,218.921,23.827,66.616
6243,218.144,23.005,66.331
6278,217.699,22.338,65.988
6308,217.387,21.998,65.8
6343,217.415,21.975,65.796
6379,217.481,22.006,65.855
6416,217.582,22.139,65.881
6451,217.824,22.362,66.063
6501,217.951,22.502,66.069
6533,217.598,22.277,65.867
6595,217.267,22.061,65.72
6599,217.165,21.915,65.689
6656,217.583,22.212,65.84
6694,217.738,22.367,65.945
6721,217.928,22.591,65.975
6762,218.101,22.778,66.127
6790,218.153,22.87,66.237
6798,218.339,23.085,66.302
6862,218.759,23.533,66.503
6866,218.93,23.787,66.636
6935,219.17,24.069,66.675
6936,219.347,24.321,66.881
6984,219.251,24.344,66.903
7017,218.679,23.761,66.552
7062,218.163,23.016,66.106
7100,217.773,22.443,65.88
7126,217.061,21.796,65.71
7140,217.17,21.834,65.779
7171,217.536,22.093,65.764
7215,217.629,22.222,65.873
7246,217.559,22.229,65.944
7280,217.702,22.401,65.924
7311,217.83,22.518,66.023
7346,217.847,22.562,66.079
7374,217.924,22.639,66.16
7418,217.889,22.616,66.052
7449,218.116,22.722,66.218
7486,218.177,22.82,66.24
7514,218.184,22.927,66.145
7548,218.324,23.091,66.217
7579,218.431,23.244,66.311
7624,218.404,23.263,66.324
7652,218.536,23.334,66.357
7688,218.566,23.424,66.322
7717,218.542,23.442,66.407
7749,218.598,23.524,66.451
7776,218.499,23.49,66.409
7818,217.851,22.899,65.981
7847,217.028,21.938,65.454
7882,216.724,21.43,65.289
7910,216.547,21.223,65.165
7951,216.561,21.172,65.125
7986,216.346,21.083,65.222
8017,216.442,21.111,65.282
8058,216.753,21.373,65.276
8063,216.88,21.5,65.367
8130,216.918,21.585,65.373
8140,217.004,21.679,65.365
8208,216.921,21.727,65.407
8244,216.961,21.749,65.409
8256,217.223,21.911,65.517
8307,217.258,21.993,65.578
8343,217.368,22.054,65.653
8355,217.484,22.205,65.774
8392,217.33,22.156,65.729
8440,217.415,22.23,65.722
8449,217.524,22.422,65.905
8531,217.675,22.526,66.043
8538,217.71,22.61,66.094
8602,217.705,22.753,65.874
8669,217.366,22.421,65.621
8732,216.083,21.029,64.962
8802,216.484,21.077,65.107
8829,216.624,21.21,65.239
8835,216.852,21.485,65.363
8895,216.925,21.568,65.404
8954,217.051,21.703,65.432
8982,217.355,21.989,65.661
9017,217.466,22.099,65.792
9053,217.393,22.089,65.734
9084,217.585,22.287,65.873
9124,217.957,22.615,66.139
9150,218.118,22.841,66.186
9184,218.104,22.883,66.334
9222,218.229,23.068,66.286
9248,218.491,23.308,66.437
9276,218.548,23.415,66.462
9305,218.389,23.317,66.405
9360,218.554,23.469,66.475
9364,218.843,23.799,66.618
9424,218.908,23.877,66.67
9449,218.991,23.991,66.582
9476,218.467,23.528,66.214
9506,217.708,22.686,65.847
9560,217.462,22.228,65.701
9605,217.377,22.001,65.715
9635,217.476,22.075,65.737
9638,217.549,22.244,65.914
9703,217.733,22.406,66.007
9770,218.067,22.863,66.063
9833,218.069,22.866,66.092
9894,218.078,22.883,66.205
9934,218.668,23.432,66.49
9965,218.368,23.281,66.286
10042,218.527,23.459,66.385
10072,218.952,23.866,66.568
10126,218.844,23.881,66.547
10129,218.951,23.971,66.612
10169,219.258,24.219,66.882
10208,219.33,24.346,66.836
10286,219.202,24.337,66.879
10289,218.799,23.984,66.7
10322,218.314,23.374,66.215
10354,217.722,22.552,65.848
10388,217.054,21.906,65.588
10420,217.087,21.802,65.652
10456,217.232,21.964,65.613
10489,217.322,22.056,65.674
10521,217.564,22.229,65.79
10550,217.669,22.355,65.866
10589,217.797,22.455,65.943
10618,217.845,22.532,65.986
10656,217.612,22.451,65.936
10685,217.666,22.447,65.95
10692,217.735,22.487,66.092
10751,217.816,22.622,66.045
10759,218.119,22.941,66.167
10818,218.187,23.048,66.228
10824,218.209,23.076,66.268
10884,218.267,23.149,66.342
10891,218.44,23.35,66.319
10949,218.523,23.489,66.351
10990,218.71,23.68,66.511
11020,218.8,23.816,66.495
11025,218.837,23.936,66.523
11087,218.959,24.097,66.605
11113,218.968,24.104,66.657
11160,218.472,23.676,66.37
11190,217.618,22.762,65.82
11227,217.179,22.112,65.533
11272,216.686,21.639,65.503
11278,216.759,21.596,65.493
11309,217.357,22.01,65.682
11357,217.483,22.189,65.7
11375,217.557,22.307,65.776
11407,217.642,22.402,65.875
11440,217.703,22.517,65.858
11468,217.737,22.594,65.844
11506,217.927,22.7,66.048
11536,217.884,22.708,65.999
11575,217.761,22.605,66.005
11607,217.901,22.73,66.058
11647,218.062,22.998,66.082
11678,218.173,23.128,66.16
11707,218.417,23.3,66.382
11741,218.493,23.435,66.394
11777,218.624,23.638,66.331
11812,218.718,23.754,66.428
11841,219.027,24.054,66.607
11875,219.155,24.196,66.663
11903,219.197,24.324,66.774
11937,219.28,24.453,66.749
11962,219.139,24.431,66.596
12025,218.52,23.793,66.336
12028,218.044,23.05,65.953
12082,217.829,22.66,65.745
12128,217.57,22.436,65.756
12155,217.753,22.566,65.883
12195,217.684,22.475,66.036
12224,217.84,22.627,66.129
12228,218.322,23.123,66.08
12299,218.385,23.271,66.077
12303,218.243,23.15,66.333
12343,218.289,23.162,66.38
12373,218.263,23.185,66.258
12413,218.352,23.254,66.304
12447,218.486,23.36,66.451
12480,218.604,23.512,66.514
12511,218.975,23.877,66.618
12543,219.048,24.048,66.611
12571,219.02,24.073,66.625
12613,219.144,24.201,66.683
12646,219.399,24.46,66.789
12684,219.431,24.56,66.789
12710,219.457,24.676,66.819
12744,219.48,24.724,66.939
12772,219.278,24.622,66.773
12815,218.638,23.923,66.448
12853,217.902,22.977,66.026
12893,217.701,22.561,65.903
12921,217.589,22.437,65.801
12925,217.73,22.555,65.884
12988,217.971,22.78,65.997
12991,218.064,22.89,66.078
13059,217.937,22.836,66.061
13065,218.037,22.967,66.077
13119,218.403,23.268,66.139
13123,218.338,23.223,66.096
13185,217.996,23.006,66.02
13226,218.074,23.051,66.036
13254,218.063,23.014,66.153
13294,218.098,23.085,66.116
13336,218.172,23.161,66.13
13338,218.185,23.243,66.066
13379,218.4,23.428,66.251
13407,218.453,23.526,66.294
13449,218.473,23.627,66.244
13478,218.497,23.699,66.274
13516,218.649,23.712,66.372
13549,218.737,23.827,66.435
13611,218.844,24.091,66.379
13650,217.829,23.162,65.905
13679,217.205,22.324,65.596
13716,216.89,21.888,65.253
13749,216.832,21.713,65.157
13781,216.935,21.685,65.328
13812,217.041,21.779,65.369
13854,216.79,21.715,65.273
13883,216.968,21.855,65.409
13915,217.427,22.234,65.628
13950,217.499,22.362,65.732
13986,217.354,22.321,65.605
14022,217.35,22.291,65.641
14059,217.437,22.323,65.671
14063,217.546,22.429,65.795
14128,217.615,22.541,65.73
14132,217.763,22.712,65.787
14195,217.911,22.936,65.84
14201,218.01,23.104,65.938
14266,218.276,23.337,66.05
14327,218.295,23.487,66.145
14426,218.672,23.803,66.263
14431,218.736,23.926,66.325
14486,218.674,23.843,66.349
14507,218.142,23.395,65.977
14511,217.368,22.634,65.568
14563,216.945,21.995,65.253
14600,216.759,21.692,65.114
14609,216.861,21.71,65.197
14656,217.081,21.887,65.375
14693,217.268,22.093,65.501
14701,217.325,22.231,65.556
14745,217.439,22.323,65.615
14781,217.537,22.417,65.571
14807,217.549,22.441,65.541
14855,217.888,22.661,65.834
14886,217.96,22.756,65.844
14912,217.71,22.641,65.84
14951,217.867,22.76,65.917
14975,218.197,23.111,66.056
15016,218.274,23.263,66.136
15053,218.417,23.388,66.125
15054,218.524,23.533,66.155
15097,218.399,23.513,66.271
15132,218.493,23.632,66.315
15169,218.689,23.752,66.465
15200,218.786,23.916,66.397
15236,218.963,24.173,66.524
15268,218.723,24.076,66.336
15300,218.019,23.362,65.869
15326,217.394,22.558,65.544
15366,216.957,21.938,65.363
15392,217.046,21.944,65.373
15437,217.104,22.031,65.391
15462,217.197,22.115,65.503
15497,217.295,22.316,65.52
15525,217.424,22.47,65.584
15570,217.661,22.659,65.608
15602,217.544,22.6,65.571
15637,217.374,22.502,65.49
15666,217.427,22.539,65.503
15702,217.66,22.73,65.716
15738,217.739,22.833,65.668
15772,217.717,22.859,65.783
15806,217.786,22.991,65.78
15839,217.856,23.118,65.728
15872,217.873,23.212,65.748
15905,217.971,23.228,65.718
15946,217.991,23.28,65.805
15980,218.122,23.429,65.925
15989,218.126,23.498,65.9
16046,218.271,23.643,65.955
16054,218.095,23.531,65.897
16112,217.417,22.891,65.462
16118,216.7,22.021,64.982
16180,216.076,21.343,64.617
16187,215.986,21.136,64.577
16242,216.249,21.263,64.834
16286,216.355,21.369,64.87
16313,216.353,21.375,64.832
16357,216.439,21.473,64.832
16393,216.57,21.632,64.995
16423,216.66,21.739,65.005
16431,216.579,21.702,65.037
16472,216.594,21.709,65.045
16503,216.78,21.825,64.919
16537,216.791,21.865,64.9
16571,216.863,21.92,65.023
16612,216.99,22.028,65.094
16638,216.948,22.142,65.135
16670,217.02,22.256,65.154
16703,217.118,22.328,65.209
16734,217.179,22.365,65.292
16773,217.261,22.577,65.281
16804,217.295,22.655,65.243
16839,217.099,22.536,65.313
16870,217.19,22.631,65.368
16903,217.031,22.434,65.274
16932,216.27,21.693,64.784
16979,215.728,21.046,64.389
17008,215.524,20.696,64.145
17056,215.511,20.606,64.35
17114,215.844,20.89,64.258
17117,215.927,20.995,64.346
17185,216.127,21.235,64.534
17188,216.276,21.419,64.712
17246,216.216,21.311,64.681
17251,216.205,21.277,64.75
17315,216.096,21.301,64.55
17319,216.162,21.373,64.565
17390,216.473,21.593,64.668
17401,216.574,21.749,64.66
17434,216.764,21.844,64.876
17477,216.895,22.008,64.911
17515,216.774,22.03,64.91
17554,216.901,22.129,65.001
17582,216.995,22.253,65.154
17620,217.107,22.347,65.259
17647,217.288,22.562,65.166
17650,217.394,22.72,65.203
17720,217.392,22.799,65.326
17723,217.266,22.762,65.235
17797,216.628,22.18,64.827
17829,216.078,21.482,64.555
17831,215.949,21.152,64.39
17879,215.985,21.108,64.409
17912,216.277,21.359,64.553
17954,216.441,21.517,64.693
17988,216.478,21.619,64.693
17989,216.592,21.748,64.737
18062,216.503,21.707,64.758
18116,216.549,21.724,64.863
18189,216.617,21.793,64.79
18193,216.742,21.911,64.916
18256,216.847,22.085,64.89
18260,217.013,22.285,64.966
18328,216.916,22.316,64.936
18331,217.0,22.388,65.042
18364,217.129,22.536,65.051
18395,217.095,22.546,65.081
18454,216.909,22.367,65.067
18482,217.022,22.428,65.093
18487,217.3,22.73,65.077
18549,217.122,22.664,64.993
18561,216.494,22.132,64.682
18617,216.03,21.509,64.369
18618,215.914,21.183,64.417
18685,216.05,21.23,64.47
18756,216.519,21.682,64.749
18826,217.083,22.274,64.99
18889,217.112,22.37,65.013
18890,217.084,22.415,65.132
18959,217.086,22.396,65.075
18960,216.791,22.176,64.86
18997,216.868,22.227,64.865
19029,217.102,22.413,64.981
19096,217.355,22.723,65.172
19127,217.417,22.797,65.241
19157,217.424,22.825,65.203
19192,217.448,22.89,65.223
19222,217.413,22.909,65.224
19261,217.472,22.969,65.278
19292,217.488,23.083,65.262
19327,217.576,23.169,65.32
19357,217.439,23.118,65.297
19394,216.805,22.526,64.914
19422,215.983,21.618,64.356
19459,215.65,21.105,64.166
19505,215.632,20.988,64.134
19540,215.72,20.993,64.203
19584,216.121,21.273,64.33
19593,216.17,21.385,64.372
19651,215.908,21.225,64.337
19690,216.156,21.39,64.454
19700,216.498,21.722,64.573
19748,216.436,21.751,64.507
19786,216.322,21.582,64.556
19793,216.413,21.658,64.567
19868,216.36,21.798,64.515
19869,216.494,21.927,64.541
19899,216.698,22.161,64.605
19931,216.761,22.249,64.707
19963,216.909,22.357,64.792
19999,217.007,22.488,64.843
20034,216.974,22.513,64.908
20083,217.045,22.573,64.919
20113,217.298,22.723,65.048
20114,217.336,22.787,65.044
20172,217.112,22.777,65.049
20179,217.07,22.754,65.023
20242,216.514,22.254,64.755
20249,215.86,21.545,64.326
20306,215.536,21.017,64.136
20313,215.538,20.883,64.136
20369,215.906,21.083,64.293
20413,216.026,21.234,64.342
20442,216.437,21.606,64.518
20452,216.527,21.747,64.562
20510,216.325,21.663,64.516
20549,216.385,21.714,64.6
20579,216.206,21.611,64.502
20582,216.22,21.613,64.499
20640,216.434,21.821,64.614
20682,216.521,21.912,64.622
20713,216.709,22.017,64.769
20716,216.785,22.155,64.771
20780,216.631,22.164,64.709
20783,216.728,22.254,64.721
20854,217.009,22.529,64.841
20857,217.046,22.615,64.902
20907,216.999,22.594,64.868
20937,217.071,22.684,64.937
20987,217.27,22.799,65.079
21018,217.371,22.904,65.091
21022,217.263,22.93,64.97
21082,216.965,22.71,64.843
21086,216.477,22.15,64.556
21140,215.82,21.371,64.184
21152,215.22,20.665,63.938
21203,215.222,20.591,63.795
21234,215.823,21.03,63.95
21264,215.836,21.11,63.934
21292,215.85,21.122,64.11
21331,215.98,21.246,64.16
21357,216.079,21.331,64.29
21404,216.094,21.419,64.252
21430,216.073,21.355,64.307
21464,216.073,21.348,64.315
21503,216.243,21.569,64.192
21534,216.312,21.626,64.296
21572,216.352,21.631,64.285
21604,216.428,21.77,64.309
21617,216.325,21.746,64.433
21686,216.427,21.827,64.509
21690,216.522,21.981,64.416
21721,216.545,22.025,64.437
21776,216.705,22.215,64.612
21780,216.749,22.277,64.657
21841,216.551,22.199,64.498
21888,216.663,22.295,64.514
21918,216.948,22.504,64.7
21922,216.854,22.504,64.649
21982,216.073,21.871,64.319
22044,214.837,20.466,63.459
22049,214.687,20.21,63.361
22112,214.956,20.353,63.541
22113,215.028,20.425,63.58
22181,215.224,20.495,63.771
22217,215.298,20.588,63.745
22249,215.504,20.847,63.783
22315,215.62,21.014,63.894
22382,215.606,21.024,63.946
22386,215.658,21.076,63.993
22447,215.945,21.238,64.157
22450,216.086,21.404,64.252
22521,216.048,21.501,64.167
22548,216.199,21.654,64.263
22553,216.176,21.652,64.28
22610,216.3,21.782,64.311
22614,216.502,21.991,64.327
22679,216.528,22.092,64.35
22688,216.369,22.055,64.384
22745,216.508,22.179,64.441
22748,216.778,22.376,64.513
22808,216.797,22.463,64.555
22852,216.66,22.449,64.455
22880,216.363,22.196,64.253
22881,215.527,21.43,63.919
22946,215.047,20.817,63.586
22947,215.186,20.661,63.566
23012,215.27,20.691,63.677
23018,215.52,20.909,63.745
23085,215.648,21.055,63.863
23088,215.544,20.945,63.844
23146,215.731,21.091,63.925
23184,215.753,21.257,63.948
23213,215.751,21.225,63.962
23287,215.807,21.227,64.081
23290,215.839,21.379,63.991
23359,215.962,21.504,64.121
23363,216.137,21.689,64.203
23417,216.202,21.815,64.214
23451,216.058,21.759,64.228
23454,216.147,21.878,64.232
23524,216.277,22.115,64.182
23531,216.409,22.26,64.301
23561,216.53,22.245,64.419
23610,216.61,22.366,64.514
23640,216.635,22.466,64.568
23644,216.718,22.589,64.648
23708,216.661,22.662,64.449
23742,216.11,22.161,64.211
23746,215.469,21.435,63.791
23794,215.149,20.941,63.572
23823,215.491,20.988,63.778
23854,215.572,21.067,63.841
23886,215.657,21.185,63.812
23920,215.759,21.278,63.896
23948,215.818,21.377,63.975
23990,215.95,21.494,64.033
24028,215.75,21.474,64.051
24057,215.763,21.465,64.039
24090,215.77,21.465,63.982
24120,215.758,21.449,63.913
24159,215.736,21.505,63.954
24194,215.768,21.598,63.968
24224,215.893,21.738,64.039
24259,215.932,21.837,64.004
24293,216.268,22.041,64.087
24324,216.264,22.106,64.027
24355,216.27,22.177,64.148
24386,216.315,22.237,64.159
24420,216.281,22.204,64.172
24449,216.349,22.27,64.227
24489,216.442,22.415,64.206
24517,216.475,22.473,64.305
24564,216.47,22.581,64.265
24593,216.504,22.659,64.283
24632,216.155,22.325,64.136
24640,215.555,21.723,63.759
24706,215.187,21.148,63.557
24710,215.0,20.896,63.37
24764,215.177,20.916,63.531
24808,215.303,21.032,63.611
24834,215.371,21.166,63.567
24848,215.416,21.231,63.557
24901,215.576,21.371,63.709
24937,215.709,21.514,63.754
24967,215.702,21.575,63.769
24974,215.711,21.567,63.808
25042,215.873,21.707,63.828
25048,215.901,21.762,63.83
25090,215.879,21.804,63.863
25123,215.961,21.895,63.9
25159,216.194,22.069,64.081
25190,216.266,22.204,64.133
25224,216.5,22.415,64.08
25260,216.569,22.528,64.177
25296,216.462,22.472,64.246
25332,216.593,22.606,64.327
25392,216.718,22.738,64.242
25461,216.813,22.87,64.23
25497,216.939,23.071,64.297
25526,215.895,22.025,63.855
25556,215.654,21.748,63.784
25597,215.744,21.795,63.766
25629,216.149,22.037,63.958
25689,216.244,22.181,63.957
25738,216.238,22.338,64.13
25778,216.365,22.403,64.135
25791,216.332,22.441,64.075
25837,216.438,22.55,64.046
25871,216.464,22.567,64.096
25880,216.474,22.619,64.124
25924,216.566,22.737,64.167
25971,216.572,22.814,64.027
26009,216.671,22.947,64.017
26016,216.84,23.055,64.274
26073,216.859,23.138,64.3
26076,216.961,23.297,64.321
26139,216.993,23.372,64.387
26145,217.028,23.454,64.332
26207,217.106,23.547,64.358
26211,217.041,23.534,64.473
26281,216.993,23.518,64.479
26311,216.859,23.383,64.243
26315,216.315,22.766,63.969
26372,215.841,22.21,63.788
26376,215.819,22.09,63.691
26446,216.051,22.107,63.923
26449,216.102,22.209,63.918
26505,216.318,22.465,63.912
26506,216.382,22.542,63.971
26570,216.396,22.55,63.879
26612,216.542,22.749,63.943
26652,216.066,22.504,63.925
26688,216.106,22.499,63.933
26690,216.574,22.86,64.054
26729,216.566,22.901,64.105
26760,216.487,22.862,64.069
26801,216.586,22.977,64.114
26838,216.498,23.012,64.088
26870,216.579,23.085,64.141
26874,216.649,23.124,64.288
26942,216.664,23.202,64.234
26954,216.75,23.296,64.182
26987,216.752,23.341,64.113
27029,216.685,23.327,64.141
27056,216.778,23.433,64.205
27098,217.118,23.742,64.307
27125,216.775,23.445,64.12
27166,216.144,22.785,63.783
27197,215.946,22.421,63.7
27229,215.773,22.239,63.615
27260,215.836,22.256,63.617
27295,216.29,22.545,63.837
27326,216.337,22.655,63.879
27370,216.205,22.607,63.87
27397,216.326,22.719,63.927
27432,216.331,22.816,63.985
27466,216.567,23.02,64.201
27499,216.827,23.334,64.24
27534,216.939,23.492,64.344
27567,216.961,23.517,64.425
27598,216.98,23.553,64.409
27632,217.0,23.595,64.354
27676,217.173,23.715,64.481
27678,217.373,24.006,64.537
27748,217.619,24.248,64.618
27781,217.721,24.365,64.7
27813,217.484,24.261,64.616
27846,217.582,24.366,64.711
27877,217.84,24.607,64.726
27911,217.529,24.395,64.599
27939,217.265,23.988,64.359
28013,216.78,23.291,64.136
28048,216.849,23.338,64.179
28087,217.028,23.506,64.219
28115,217.14,23.619,64.299
28143,217.108,23.637,64.403
28179,217.145,23.707,64.415
28206,217.25,23.838,64.382
28253,217.248,23.834,64.403
28280,216.994,23.75,64.223
28314,217.062,23.807,64.198
28341,217.101,23.752,64.402
28379,217.149,23.84,64.417
28412,217.624,24.263,64.562
28453,217.792,24.49,64.575
28485,217.724,24.484,64.691
28519,217.733,24.558,64.72
28551,217.475,24.358,64.565
28584,217.644,24.529,64.663
28616,217.913,24.802,64.674
28651,217.935,24.908,64.676
28685,218.098,25.098,64.771
28723,217.779,24.875,64.578
28752,217.383,24.395,64.232
28784,216.837,23.652,63.89
28813,216.115,22.877,63.672
28850,216.101,22.768,63.624
28881,216.58,23.033,63.884
28919,216.51,23.011,63.863
28951,216.486,22.974,63.865
28991,216.572,23.055,63.936
29020,216.378,22.996,63.869
29054,216.418,23.036,63.875
29084,216.384,22.955,63.907
29121,216.37,22.903,63.977
29150,216.559,23.064,63.839
29184,216.58,23.064,63.946
29211,216.539,23.197,63.842
29249,216.652,23.304,63.882
29278,216.79,23.457,63.979
29324,216.826,23.519,63.967
29354,216.672,23.401,63.98
29383,216.766,23.512,63.988
29417,216.726,23.605,63.989
29445,216.785,23.676,64.025
29486,217.03,23.779,64.234
29525,216.978,23.817,64.185
29558,216.515,23.453,63.796
29609,216.006,22.77,63.508
29640,215.733,22.357,63.461
29644,215.669,22.183,63.404
29678,215.676,22.191,63.316
29740,215.793,22.282,63.413
29770,215.896,22.401,63.405
29774,215.975,22.473,63.471
29836,216.107,22.698,63.561
29840,216.169,22.816,63.629
29911,216.1,22.748,63.508
29914,216.137,22.763,63.513
29956,216.143,22.747,63.688
29985,216.242,22.859,63.705
30023,216.123,22.872,63.632
30049,216.229,22.992,63.631
30086,216.588,23.262,63.818
30113,216.652,23.384,63.866
30160,216.713,23.604,63.858
30199,216.802,23.698,64.038
30247,216.781,23.639,63.991
30284,216.833,23.724,64.006
30285,216.942,23.866,63.958
30331,217.017,23.978,63.969
30363,217.113,24.086,64.019
30408,216.716,23.73,63.822
30437,216.203,23.132,63.598
30440,216.025,22.778,63.463
30501,215.927,22.554,63.498
30504,216.019,22.631,63.546
30570,216.166,22.712,63.735
30597,216.211,22.798,63.717
30601,216.314,22.996,63.7
30670,216.404,23.099,63.746
30674,216.379,23.103,63.77
30745,216.405,23.121,63.782
30767,216.652,23.343,63.841
30805,216.641,23.35,63.762
30817,216.519,23.299,63.799
30866,216.633,23.435,63.854
30903,217.05,23.8,63.98
30915,217.061,23.88,64.003
30960,216.832,23.769,63.914
30997,216.877,23.791,63.967
31011,216.696,23.721,63.86
31093,216.794,23.833,63.918
31098,217.257,24.172,64.099
31144,217.218,24.205,64.146
31148,216.881,24.027,63.967
31177,216.376,23.49,63.624
31234,215.828,22.801,63.357
31235,215.658,22.448,63.297
31302,215.523,22.225,63.233
31305,215.653,22.328,63.279
31366,216.262,22.744,63.56
31369,216.297,22.863,63.623
31436,216.412,23.091,63.606
31440,216.501,23.183,63.686
31508,216.311,23.01,63.655
31512,216.256,22.968,63.61
31569,216.044,22.809,63.506
31573,216.116,22.826,63.562
31637,216.221,22.943,63.559
31641,216.266,23.031,63.618
31702,216.348,23.128,63.597
31769,216.232,23.09,63.57
31778,216.267,23.125,63.602
31835,216.294,23.195,63.637
31903,216.542,23.435,63.593
31940,216.187,23.252,63.528
31971,215.913,23.029,63.352
32012,215.578,22.539,63.112
32038,215.218,21.953,62.965
32107,214.965,21.593,62.934
32134,214.996,21.569,62.942
32175,215.2,21.731,63.08
32176,215.263,21.823,63.122
32211,215.64,22.137,63.094
32246,215.738,22.269,63.175
32277,215.714,22.295,63.151
32308,215.772,22.373,63.248
32338,215.563,22.194,63.156
32377,215.62,22.201,63.204
32410,215.695,22.333,63.184
32448,215.832,22.497,63.213
32505,216.079,22.743,63.454
32509,216.124,22.814,63.471
32542,215.997,22.75,63.334
32572,215.998,22.747,63.388
32616,215.986,22.753,63.364
32645,215.975,22.766,63.356
32672,216.092,22.858,63.36
32711,216.072,22.89,63.289
32739,216.079,22.901,63.4
32777,215.92,22.804,63.333
32813,215.347,22.385,62.826
32847,214.746,21.638,62.551
32876,214.715,21.236,62.462
32910,214.566,21.034,62.374
32939,214.496,21.07,62.473
32978,214.592,21.151,62.515
33018,214.83,21.311,62.539
33050,214.911,21.408,62.522
33099,214.841,21.401,62.564
33128,214.91,21.49,62.639
33150,214.594,21.231,62.493
33194,214.628,21.228,62.574
33222,214.958,21.525,62.501
33232,214.952,21.555,62.534
33296,215.109,21.617,62.679
33299,215.295,21.788,62.783
33356,215.487,22.104,62.878
33363,215.678,22.294,62.99
33427,215.423,22.143,62.974
33435,215.529,22.263,63.022
33489,215.799,22.507,63.053
33495,215.811,22.596,63.089
33560,215.532,22.446,62.99
33565,215.226,22.113,62.846
33629,214.827,21.585,62.602
33638,214.869,21.477,62.553
33670,215.241,21.769,62.721
33714,215.489,22.017,62.883
33747,215.479,22.085,63.009
33782,215.616,22.248,63.049
33818,215.872,22.43,63.211
33867,215.973,22.563,63.211
33897,215.771,22.496,63.252
33926,215.786,22.48,63.31
33929,215.954,22.589,63.346
33993,216.032,22.695,63.335
34001,216.143,22.807,63.512
34055,216.221,22.955,63.491
34061,216.292,23.046,63.516
34125,216.371,23.157,63.59
34128,216.408,23.27,63.6
34190,216.519,23.386,63.626
34197,216.601,23.503,63.626
34264,216.586,23.559,63.625
34300,216.117,23.237,63.37
34327,215.672,22.694,63.184
34332,215.708,22.373,63.202
34392,215.672,22.327,63.167
34395,215.539,22.283,63.162
34461,215.709,22.448,63.168
34462,216.083,22.798,63.347
34525,216.169,22.936,63.419
34529,216.307,23.074,63.562
34593,216.302,23.07,63.622
34596,216.202,23.02,63.451
34661,216.268,23.049,63.526
34665,216.368,23.255,63.495
34728,216.416,23.33,63.576
34731,216.164,23.166,63.465
34783,216.242,23.263,63.471
34817,216.514,23.498,63.657
34857,216.54,23.538,63.681
34889,216.624,23.614,63.722
34933,216.729,23.722,63.828
34962,216.701,23.802,63.835
34966,216.692,23.861,63.784
35035,216.641,23.799,63.677
35038,216.163,23.219,63.448
35087,215.858,22.723,63.28
35117,215.845,22.588,63.281
35147,215.744,22.524,63.215
35184,215.837,22.616,63.227
35211,216.158,22.828,63.392
35249,216.196,22.883,63.41
35276,216.177,22.967,63.384
35317,216.243,23.046,63.452
35349,216.154,23.002,63.372
35381,216.112,22.962,63.393
35414,216.038,22.903,63.434
35452,216.085,22.937,63.46
35485,216.242,23.07,63.421
35519,216.359,23.197,63.48
35553,216.148,23.11,63.554
35584,216.21,23.177,63.534
35614,216.532,23.48,63.579
35654,216.565,23.553,63.638
35687,216.34,23.472,63.49
35736,216.375,23.522,63.499
35766,216.526,23.601,63.655
35770,216.541,23.703,63.612
35832,216.691,23.834,63.422
35836,216.133,23.287,63.152
35917,215.536,22.586,63.002
35960,215.395,22.266,62.908
35971,215.41,22.121,62.935
36034,215.318,22.114,62.936
36073,215.325,22.129,62.919
36083,215.63,22.367,62.957
36126,215.746,22.52,62.999
36136,215.705,22.589,62.975
36184,215.722,22.587,63.009
36224,215.861,22.682,63.143
36257,215.915,22.747,63.236
36300,215.668,22.602,63.15
36328,215.805,22.701,63.203
36332,215.834,22.809,63.234
36404,215.87,22.889,63.253
36409,215.897,22.924,63.184
36474,215.947,22.995,63.183
36505,216.242,23.296,63.327
36535,215.91,23.166,63.298
36597,216.037,23.273,63.367
36601,216.479,23.523,63.423
36669,216.442,23.552,63.436
36672,216.562,23.712,63.512
36729,216.673,23.847,63.582
36773,216.489,23.814,63.529
36815,216.071,23.42,63.377
36857,215.649,22.877,63.129
36893,215.63,22.629,63.057
36903,215.611,22.595,62.936
36935,215.694,22.641,63.088
36975,215.854,22.798,63.132
37013,215.96,22.926,63.233
37043,215.99,23.002,63.263
37091,216.061,23.093,63.266
37120,216.116,23.135,63.286
37123,215.803,22.947,63.294
37189,215.802,22.92,63.244
37192,215.782,22.88,63.166
37250,215.83,22.933,63.234
37258,216.195,23.258,63.346
37318,216.259,23.426,63.384
37325,216.382,23.509,63.41
37382,216.497,23.639,63.508
37423,216.394,23.69,63.384
37450,216.459,23.739,63.364
37459,216.394,23.76,63.43
37518,216.418,23.819,63.478
37526,216.686,24.013,63.458
37589,216.725,24.101,63.474
37592,216.565,23.995,63.529
37657,216.035,23.394,63.153
37720,215.616,22.839,62.928
37724,215.335,22.465,62.936
37785,215.39,22.455,62.919
37792,215.549,22.561,63.005
37857,215.614,22.649,63.087
37860,215.719,22.844,62.999
37914,215.798,22.918,63.07
37948,215.848,22.974,63.042
37984,215.808,22.953,62.978
38012,215.59,22.782,63.0
38045,215.585,22.776,62.974
38076,215.758,22.909,63.087
38110,215.857,23.013,63.155
38144,215.9,23.125,63.123
38175,216.043,23.278,63.188
38209,216.348,23.542,63.434
38246,216.385,23.667,63.438
38274,216.305,23.67,63.386
38306,216.375,23.774,63.381
38341,216.643,23.938,63.401
38375,216.635,23.99,63.404
38408,216.384,23.903,63.419
38435,216.487,24.004,63.453
38505,216.618,24.103,63.485
38508,216.266,23.819,63.272
38540,215.493,23.055,62.869
38568,215.16,22.496,62.761
38612,215.242,22.286,62.776
38639,215.177,22.2,62.739
38677,215.317,22.296,62.638
38704,215.275,22.273,62.659
38741,215.396,22.413,62.717
38771,215.378,22.418,62.691
38813,215.159,22.26,62.639
38843,215.194,22.312,62.645
38878,215.074,22.168,62.666
38908,215.074,22.156,62.67
38944,214.938,22.134,62.7
38974,214.944,22.161,62.648
39004,215.253,22.367,62.555
39040,215.255,22.44,62.562
39067,215.244,22.466,62.642
39095,215.297,22.555,62.683
39156,215.135,22.351,62.664
39158,215.182,22.398,62.751
39221,215.428,22.673,62.761
39223,215.44,22.741,62.735
39288,215.424,22.745,62.732
39289,215.462,22.807,62.754
39352,215.509,22.866,62.76
39399,215.467,22.864,62.776
39437,215.284,22.66,62.701
39480,214.702,22.017,62.311
39490,214.079,21.326,62.025
39491,214.033,21.104,62.052
39561,214.223,21.218,62.154
39567,214.338,21.324,62.189
39627,214.398,21.442,62.277
39690,214.426,21.54,62.25
39694,214.549,21.684,62.229
39761,214.765,21.835,62.321
39764,214.761,21.828,62.392
39824,214.831,21.792,62.416
39827,214.933,21.882,62.424
39887,215.076,22.129,62.532
39890,215.218,22.267,62.56
39953,215.337,22.452,62.643
39961,215.393,22.561,62.659
40031,215.376,22.509,62.724
40036,215.479,22.579,62.87
40090,215.376,22.597,62.732
40122,215.482,22.71,62.786
40123,215.592,22.824,62.994
40212,215.679,22.912,63.044
40220,215.851,23.166,63.028
40257,215.909,23.255,63.09
40297,215.793,23.146,63.066
40305,215.318,22.666,62.877
40345,214.807,22.032,62.63
40385,214.619,21.682,62.498
40420,215.06,21.891,62.454
40452,215.166,22.006,62.524
40501,215.008,21.986,62.59
40541,215.138,22.129,62.647
40546,215.1,22.102,62.721
40578,215.173,22.178,62.746
40610,215.175,22.196,62.745
40647,215.114,22.116,62.689
40678,215.162,22.157,62.679
40720,215.239,22.223,62.742
40749,215.285,22.293,62.798
40781,215.4,22.423,62.83
40791,215.184,22.335,62.788
40843,215.341,22.486,62.829
40875,215.673,22.789,62.972
40906,215.695,22.841,63.027
40939,215.762,22.867,63.126
40987,215.821,22.968,63.154
41038,215.909,23.072,63.133
41058,216.01,23.196,63.122
41096,216.044,23.34,63.129
41105,215.512,22.869,62.847
41156,214.822,22.131,62.516
41193,214.43,21.567,62.321
41204,214.46,21.365,62.269
41255,214.475,21.36,62.224
41297,214.749,21.524,62.41
41305,214.837,21.666,62.466
41348,214.796,21.708,62.442
41384,214.887,21.784,62.487
41413,214.868,21.804,62.411
41451,214.807,21.714,62.476
41484,214.699,21.624,62.389
41489,214.712,21.597,62.41
41552,214.714,21.597,62.41
41555,214.804,21.671,62.469
41610,214.922,21.792,62.487
41652,215.01,21.92,62.459
41682,215.086,21.987,62.577
41686,215.158,22.064,62.552
41751,215.167,22.126,62.646
41755,215.206,22.191,62.69
41826,215.304,22.309,62.684
41831,215.282,22.293,62.674
41875,214.932,22.076,62.576
41908,215.07,22.163,62.592
41950,215.239,22.334,62.65
41981,214.785,21.966,62.42
41984,214.127,21.269,62.111
42057,213.9,20.823,61.973
42063,214.067,20.84,62.038
42100,214.193,20.921,62.15
42128,214.466,21.161,62.167
42167,214.574,21.291,62.279
42196,214.523,21.263,62.35
42236,214.632,21.388,62.304
42266,214.876,21.607,62.408
42302,214.761,21.54,62.338
42332,214.522,21.326,62.337
42368,214.614,21.336,62.357
42399,214.917,21.663,62.504
42438,215.023,21.817,62.586
42472,215.233,21.978,62.6
42509,215.323,22.102,62.667
42536,215.057,21.904,62.712
42577,215.2,21.983,62.826
42603,215.582,22.299,63.014
42633,215.644,22.419,62.98
42661,215.393,22.266,62.949
42699,215.493,22.335,62.955
42727,215.833,22.675,63.089
42774,215.933,22.799,63.095
42803,215.83,22.733,63.296
42839,215.729,22.717,63.184
42875,215.264,22.211,62.856
42930,214.745,21.543,62.557
42970,214.724,21.279,62.452
43014,214.758,21.338,62.571
43054,214.904,21.478,62.617
43069,215.38,21.769,62.9
43115,215.401,21.845,62.869
43145,215.167,21.743,62.825
43186,215.196,21.771,62.819
43215,215.231,21.723,62.755
43218,215.2,21.681,62.762
43281,215.46,21.977,62.841
43285,215.558,22.09,62.955
43349,215.478,22.04,62.91
43353,215.615,22.177,62.999
43415,215.826,22.356,63.202
43419,215.913,22.463,63.25
43485,215.761,22.448,63.095
43489,215.885,22.573,63.16
43549,216.297,22.886,63.415
43552,216.341,22.991,63.406
43613,216.275,23.024,63.43
43627,216.3,23.091,63.392
43682,216.024,22.863,63.228
43720,215.46,22.216,62.925
43748,215.174,21.724,62.73
43815,215.168,21.543,62.778
43855,215.346,21.721,62.755
43884,215.332,21.738,62.915
43922,215.379,21.808,62.924
43952,215.511,21.949,62.959
44020,215.374,21.927,62.912
44024,215.383,21.904,62.799
44081,215.657,22.026,62.945
44099,215.699,22.094,62.994
44137,215.542,22.074,63.013
44181,215.68,22.181,63.087
44212,215.748,22.232,63.095
44218,215.785,22.33,63.1
44286,215.871,22.442,63.052
44289,215.937,22.515,63.156
44351,215.899,22.517,63.176
44388,215.911,22.544,63.172
44418,216.227,22.775,63.306
44421,216.238,22.843,63.319
44489,215.917,22.675,63.202
44495,215.868,22.644,63.147
44552,215.219,22.041,62.81
44553,214.597,21.283,62.452
44623,214.671,21.055,62.398
44624,214.602,20.922,62.345
44688,214.852,21.048,62.528
44697,214.916,21.141,62.547
44729,214.892,21.142,62.643
44775,214.952,21.192,62.606
44808,214.768,21.169,62.577
44843,214.924,21.313,62.675
44872,214.936,21.332,62.668
44905,214.877,21.254,62.635
44940,215.152,21.396,62.701
44980,215.181,21.428,62.761
45012,215.174,21.461,62.763
45049,215.251,21.603,62.72
45052,215.12,21.467,62.741
45125,215.178,21.591,62.708
45138,215.255,21.667,62.803
45179,215.292,21.734,62.865
45218,215.486,21.908,62.926
45245,215.494,21.943,62.958
45249,215.538,22.014,62.879
45308,215.571,22.071,62.927
45339,215.571,22.066,62.942
45375,215.654,22.167,63.003
45409,215.827,22.381,63.062
45446,215.717,22.308,63.058
45484,215.057,21.653,62.733
45486,214.412,20.929,62.385
45513,214.199,20.568,62.179
45563,214.201,20.44,62.206
45607,214.423,20.584,62.253
45639,214.517,20.701,62.277
45679,214.641,20.785,62.491
45706,214.773,20.901,62.56
45746,214.658,20.907,62.413
45777,214.729,20.99,62.491
45815,214.985,21.162,62.591
45818,214.924,21.138,62.501
45863,214.721,21.044,62.573
45900,214.81,21.126,62.507
45947,215.019,21.287,62.66
45984,215.191,21.463,62.732
46033,215.262,21.534,62.807
46074,215.426,21.723,62.696
46121,215.466,21.791,62.791
46161,215.326,21.705,62.861
46175,215.403,21.781,62.878
46224,215.716,22.092,62.887
46225,215.799,22.198,62.918
46269,215.515,21.969,63.03
46296,215.637,22.071,63.039
46328,215.913,22.403,63.225
46355,215.974,22.488,63.21
46397,215.989,22.519,63.318
46427,215.963,22.529,63.237
46465,215.683,22.258,63.132
46500,215.014,21.54,62.759
46548,214.939,21.158,62.583
46577,214.91,21.063,62.521
46581,214.806,20.981,62.669
46639,214.947,21.113,62.743
46645,215.175,21.326,62.686
46706,215.183,21.391,62.713
46712,215.162,21.336,62.8
46769,215.195,21.413,62.837
46814,215.175,21.461,62.853
46847,215.149,21.43,62.874
46850,215.389,21.507,62.877
46911,215.469,21.596,62.921
46913,215.303,21.623,62.918
46975,215.429,21.723,63.012
46979,215.579,21.865,63.05
47043,215.668,22.003,63.113
47049,215.867,22.178,63.216
47117,215.961,22.314,63.276
47149,216.066,22.35,63.302
47178,216.169,22.489,63.327
47185,216.227,22.597,63.392
47262,216.302,22.711,63.457
47275,216.498,22.927,63.552
47320,216.522,23.004,63.538
47376,216.16,22.753,63.494
47393,215.339,21.571,62.926
47438,215.279,21.356,62.951
47484,215.442,21.543,62.975
47525,215.601,21.679,63.069
47535,215.576,21.704,63.073
47562,215.644,21.787,63.071
47591,215.779,21.901,63.08
47631,215.833,21.993,63.111
47664,215.577,21.848,63.153
47700,215.541,21.787,63.119
47734,215.687,21.873,63.248
47768,215.721,21.933,63.255
47800,215.804,22.027,63.225
47832,215.853,22.093,63.224
47863,215.664,21.954,63.194
47898,215.669,21.984,63.156
47929,215.909,22.212,63.207
47968,215.921,22.242,63.179
47999,215.936,22.306,63.226
48031,215.952,22.351,63.205
48059,216.114,22.44,63.33
48097,216.121,22.503,63.3
48128,216.096,22.509,63.311
48168,216.193,22.586,63.415
48196,216.165,22.562,63.477
48238,215.894,22.377,63.328
48265,215.198,21.711,62.954
48290,214.608,20.978,62.583
48335,214.673,20.82,62.42
48366,214.626,20.727,62.366
48398,214.64,20.719,62.521
48425,214.784,20.868,62.509
48468,214.674,20.82,62.482
48502,214.811,20.894,62.61
48531,214.935,21.067,62.654
48561,214.948,21.109,62.62
48601,215.131,21.194,62.697
48632,215.124,21.17,62.754
48665,214.93,21.103,62.718
48696,214.982,21.144,62.708
48734,215.151,21.305,62.708
48765,215.259,21.391,62.806
48803,215.067,21.228,62.89
48831,215.158,21.323,62.883
48870,215.361,21.546,62.964
48898,215.464,21.695,62.96
48932,215.358,21.756,62.893
48961,215.398,21.785,62.843
49005,215.526,21.871,62.912
49037,215.585,21.961,62.991
49072,215.902,22.202,63.151
49107,215.924,22.281,63.17
49135,216.02,22.382,63.273
49168,215.984,22.359,63.214
49202,215.219,21.675,62.905
49241,214.581,20.928,62.559
49270,214.489,20.63,62.415
49302,214.522,20.538,62.46
49332,214.442,20.474,62.497
49371,214.574,20.606,62.572
49410,214.689,20.795,62.561
49444,214.789,20.868,62.675
49452,214.989,21.034,62.674
49491,215.005,21.077,62.711
49547,215.132,21.144,62.814
49551,215.166,21.15,62.862
49586,215.163,21.148,62.909
49622,215.289,21.274,62.906
49661,215.494,21.461,63.072
49694,215.551,21.563,63.144
49741,215.544,21.603,63.053
49774,215.681,21.741,63.168
49803,215.755,21.9,63.147
49838,215.887,22.034,63.256
49870,215.87,22.08,63.266
49878,215.96,22.161,63.28
49934,215.956,22.149,63.342
49961,216.034,22.247,63.35
50004,216.042,22.354,63.33
50033,215.795,22.169,63.204
50075,214.956,21.347,62.865
50103,214.392,20.631,62.545
50109,214.459,20.458,62.444
50164,214.537,20.493,62.439
50206,214.735,20.668,62.643
50236,214.839,20.786,62.69
50278,214.995,20.891,62.726
50310,215.082,20.992,62.755
50313,215.04,21.03,62.847
50367,215.033,21.026,62.858
50414,215.009,20.97,62.778
50468,215.093,21.034,62.8
50507,215.139,21.044,62.83
50513,215.228,21.172,62.778
50559,215.283,21.23,62.788
50593,214.995,21.084,62.871
50624,215.041,21.174,62.789
50656,215.362,21.385,62.837
50687,215.379,21.421,62.845
50726,215.178,21.29,62.912
50751,215.248,21.357,62.934
50791,215.559,21.64,62.882
50822,215.581,21.675,62.936
50857,215.52,21.653,62.978
50888,215.547,21.707,62.974
50926,215.12,21.404,62.806
50957,214.423,20.676,62.503
50991,214.101,20.182,62.157
51063,213.669,19.721,61.95
51093,213.791,19.759,62.03
51126,214.061,19.948,62.138
51155,214.02,19.959,62.15
51185,214.041,20.047,61.924
51236,214.157,20.142,62.017
51239,214.168,20.151,62.261
51336,214.332,20.275,62.291
51387,214.428,20.38,62.394
51400,214.41,20.394,62.329
51437,214.473,20.48,62.367
51453,214.511,20.526,62.425
51507,214.585,20.614,62.432
51540,214.707,20.708,62.503
51548,214.715,20.759,62.528
51587,214.646,20.727,62.537
51620,214.748,20.835,62.591
51655,215.07,21.132,62.641
51687,215.091,21.181,62.675
51729,214.886,21.043,62.65
51757,214.973,21.109,62.699
51793,215.166,21.291,62.721
51824,215.239,21.377,62.84
51857,214.601,20.942,62.554
51889,213.946,20.26,62.222
51928,213.624,19.788,62.06
51956,213.521,19.559,61.954
51998,213.751,19.724,62.07
52028,213.93,19.888,62.103
52086,214.168,20.052,62.201
52121,214.217,20.121,62.277
52127,214.59,20.375,62.447
52164,214.686,20.51,62.456
52193,214.526,20.399,62.476
52225,214.578,20.41,62.521
52258,214.476,20.394,62.458
52297,214.55,20.462,62.479
52324,214.687,20.671,62.497
52353,214.811,20.802,62.567
52395,215.126,20.938,62.764
52430,215.198,21.07,62.808
52478,214.982,21.005,62.797
52505,215.105,21.112,62.851
52520,215.342,21.252,62.91
52571,215.389,21.333,62.972
52576,215.411,21.388,62.992
52635,215.49,21.476,63.024
52674,215.429,21.495,63.106
52702,215.548,21.616,63.169
52740,215.297,21.43,62.994
52766,214.667,20.856,62.625
52810,214.333,20.381,62.446
52834,214.293,20.181,62.419
52877,214.57,20.29,62.587
52900,214.671,20.418,62.644
52940,214.819,20.641,62.596
52968,214.946,20.798,62.627
53008,215.047,20.887,62.816
53036,215.146,20.956,62.898
53039,215.066,20.934,62.89
53113,215.035,20.919,62.774
53118,215.209,21.021,62.848
53153,215.24,21.067,62.839
53184,215.279,21.171,62.888
53240,215.396,21.269,63.018
53244,215.666,21.479,63.003
53329,215.66,21.567,63.014
53375,215.426,21.439,62.996
53378,215.52,21.519,63.114
53420,215.724,21.659,63.156
53427,215.767,21.742,63.143
53472,215.679,21.791,63.143
53501,215.76,21.861,63.16
53551,215.949,21.927,63.31
53588,216.076,22.098,63.371
53592,216.25,22.269,63.382
53634,215.788,21.955,63.158
53671,214.775,20.937,62.738
53704,214.353,20.348,62.477
53739,214.392,20.211,62.428
53812,214.825,20.535,62.746
53879,214.872,20.668,62.706
53911,214.951,20.856,62.78
53942,214.988,20.893,62.889
53984,215.087,20.942,62.763
54018,215.088,20.953,62.818
54079,215.335,21.107,63.0
54083,215.388,21.199,62.975
54146,215.401,21.316,62.869
54150,215.519,21.424,62.974
54181,215.592,21.462,63.143
54209,215.622,21.554,63.162
54247,215.644,21.633,63.062
54278,215.691,21.723,63.101
54323,215.807,21.778,63.303
54361,215.935,21.933,63.34
54391,215.861,21.961,63.311
54464,215.998,22.091,63.332
54467,216.322,22.297,63.469
54468,216.32,22.355,63.515
54522,215.788,21.984,63.215
54569,215.144,21.274,62.805
54596,214.602,20.669,62.697
54603,214.617,20.501,62.665
54661,215.002,20.708,62.785
54699,215.107,20.836,62.84
54727,215.009,20.912,62.769
54734,215.096,20.976,62.891
54792,215.317,21.152,62.987
54835,215.394,21.262,62.962
54867,215.468,21.282,63.049
54900,215.431,21.207,62.974
54928,215.39,21.272,62.943
54933,215.464,21.344,62.944
54994,215.279,21.237,62.98
55003,215.395,21.374,62.95
55067,215.668,21.572,63.095
55070,215.728,21.683,63.072
55130,215.855,21.816,63.148
55144,215.962,21.935,63.223
55176,216.095,22.065,63.295
55217,216.222,22.176,63.398
55249,216.228,22.162,63.474
55284,216.376,22.321,63.521
55311,216.477,22.533,63.534
55355,216.287,22.442,63.417
55384,215.36,21.654,62.904
55413,215.028,21.111,62.731
55454,215.348,21.171,62.804
55482,215.431,21.204,62.9
55517,215.196,21.084,62.877
55545,215.332,21.192,62.982
55582,215.647,21.495,63.01
55609,215.719,21.643,62.995
55651,215.758,21.614,63.184
55680,215.729,21.622,63.169
55721,215.87,21.749,63.226
55752,215.88,21.781,63.187
55786,215.838,21.816,63.172
55818,215.969,21.922,63.208
55854,215.94,21.913,63.2
55887,215.993,22.002,63.241
55921,216.0,22.047,63.198
55951,216.013,22.09,63.214
55984,215.995,22.113,63.327
56017,216.011,22.144,63.315
56053,216.094,22.207,63.321
56083,216.077,22.253,63.254
56131,216.114,22.42,63.152
56159,216.157,22.459,63.203
56203,216.434,22.61,63.36
56231,216.482,22.723,63.406
56269,215.965,22.455,63.264
56297,215.721,22.219,63.091
56335,215.445,21.774,62.822
56364,215.06,21.27,62.643
56369,215.017,21.041,62.532
56431,215.005,21.028,62.479
56435,214.948,21.084,62.622
56497,214.959,21.106,62.627
56533,215.179,21.143,62.644
56562,215.233,21.247,62.723
56609,215.315,21.333,62.722
56639,215.341,21.396,62.79
56667,215.037,21.281,62.568
56672,215.049,21.256,62.619
56731,215.269,21.386,62.682
56736,215.286,21.453,62.687
56800,215.3,21.52,62.733
56805,215.346,21.563,62.705
56868,215.434,21.607,62.8
56871,215.438,21.663,62.771
56924,215.473,21.742,62.779
56953,215.496,21.794,62.793
56987,215.307,21.649,62.782
57018,215.405,21.723,62.795
57053,215.673,21.975,62.866
57089,215.688,22.027,62.859
57123,215.502,21.943,62.82
57152,215.569,22.009,62.846
57190,215.387,21.972,62.717
57218,215.359,21.95,62.815
57251,215.423,21.885,62.82
57282,214.853,21.28,62.468
57325,214.369,20.706,62.25
57353,214.401,20.611,62.257
57390,214.605,20.778,62.263
57430,214.682,20.879,62.311
57459,214.855,20.972,62.424
57504,214.869,21.016,62.459
57536,215.128,21.247,62.439
57547,215.172,21.308,62.499
57598,214.991,21.212,62.48
57635,214.999,21.191,62.457
57645,214.907,21.116,62.407
57689,214.981,21.163,62.467
57730,215.22,21.408,62.488
57738,215.266,21.49,62.54
57785,215.163,21.461,62.56
57815,215.285,21.559,62.671
57855,215.169,21.5,62.714
57890,215.26,21.55,62.776
57927,215.424,21.76,62.692
57956,215.502,21.84,62.802
57987,215.697,21.982,62.842
58021,215.726,22.055,62.889
58053,215.278,21.849,62.7
58090,215.44,21.967,62.822
58123,215.791,22.178,63.028
58158,215.736,22.186,63.069
58189,215.301,21.926,62.74
58227,214.742,21.276,62.434
58256,214.484,20.794,62.204
58290,214.468,20.688,62.184
58319,214.889,20.968,62.455
58361,214.97,21.073,62.443
58396,214.924,21.261,62.456
58465,215.028,21.328,62.501
58500,215.101,21.434,62.534
58502,215.064,21.407,62.531
58539,215.037,21.353,62.536
58572,215.108,21.413,62.476
58609,215.137,21.471,62.479
58642,215.403,21.638,62.545
58679,215.397,21.695,62.595
58714,215.247,21.67,62.545
58743,215.288,21.73,62.533
58774,215.171,21.629,62.602
58809,215.273,21.687,62.788
58842,215.397,21.783,62.684
58880,215.395,21.825,62.659
58911,215.335,21.826,62.66
58943,215.365,21.851,62.73
58979,215.593,22.037,62.751
59005,215.569,22.052,62.693
59044,215.761,22.131,62.811
59071,215.755,22.159,62.861
59111,215.567,22.171,62.809
59143,215.306,21.955,62.652
59177,214.752,21.339,62.317
59208,214.257,20.72,62.056
59245,214.103,20.468,61.946
59280,214.108,20.41,61.918
59311,214.268,20.568,61.93
59337,214.265,20.58,61.955
59375,214.332,20.606,61.957
59404,214.402,20.646,62.047
59449,214.466,20.774,62.095
59488,214.527,20.828,62.122
59523,214.494,20.787,62.204
59561,214.469,20.786,62.142
59590,214.397,20.757,62.0
59598,214.429,20.791,62.011
59667,214.545,20.924,62.17
59701,214.677,21.039,62.269
59704,214.87,21.203,62.296
59749,214.849,21.247,62.251
59783,214.642,21.104,62.365
59818,214.749,21.177,62.403
59860,214.865,21.334,62.339
59896,214.946,21.407,62.342
59923,214.907,21.427,62.367
59964,214.98,21.51,62.428
59992,215.153,21.58,62.455
60029,215.215,21.685,62.534
60062,215.321,21.811,62.547
60063,215.333,21.882,62.532
60125,214.946,21.6,62.521
60130,214.447,21.13,62.219
60188,214.281,20.684,62.021
60227,214.098,20.335,61.997
60254,213.898,20.249,61.775
60261,214.09,20.378,61.798
60321,214.532,20.691,62.083
60367,214.542,20.8,62.038
60398,214.227,20.615,62.02
60402,214.378,20.705,62.108
60445,214.55,20.884,62.146
60489,214.52,20.839,62.166
60522,214.611,20.904,62.136
60567,214.706,21.001,62.185
60595,214.824,21.058,62.308
60622,214.923,21.145,62.406
60628,214.924,21.292,62.419
60688,215.042,21.426,62.418
60692,215.172,21.445,62.667
60756,215.214,21.528,62.692
60762,215.304,21.633,62.521
60828,215.357,21.723,62.59
60831,215.525,21.809,62.722
60887,215.565,21.865,62.752
60892,215.308,21.836,62.564
60961,215.4,21.915,62.681
60962,215.631,22.03,62.875
61026,215.284,21.814,62.634
61029,214.486,21.09,62.237
61092,214.053,20.515,62.03
61096,214.072,20.396,61.961
61159,214.163,20.432,62.021
61165,214.535,20.681,62.158
61231,214.587,20.77,62.132
61234,214.384,20.653,62.238
61300,214.497,20.72,62.313
61304,214.605,20.924,62.16
61365,214.611,20.922,62.245
61393,214.586,20.847,62.353
61399,214.607,20.86,62.397
61463,214.797,21.01,62.336
61468,214.896,21.113,62.293
61528,214.808,21.022,62.335
61565,214.903,21.101,62.39
61592,215.233,21.44,62.595
61595,215.232,21.477,62.624
61661,215.073,21.415,62.5
61727,215.211,21.539,62.68
61771,215.249,21.618,62.668
61799,215.159,21.53,62.583
61800,215.2,21.559,62.644
61863,215.472,21.784,62.654
61864,215.47,21.826,62.698
61929,215.421,21.826,62.794
61938,215.473,21.931,62.798
61996,214.995,21.661,62.492
61997,214.394,21.072,62.137
62057,214.204,20.566,62.15
62098,213.885,20.138,62.002
62131,213.648,19.923,61.787
62132,213.826,20.003,61.918
62204,214.104,20.234,61.977
62207,214.143,20.305,61.973
62240,214.273,20.356,62.149
62272,214.405,20.504,62.22
62328,214.423,20.587,62.266
62332,214.369,20.56,62.231
62402,214.164,20.413,62.078
62429,214.249,20.435,62.198
62438,214.566,20.603,62.239
62494,214.633,20.682,62.319
62497,214.56,20.817,62.322
62557,214.657,20.923,62.379
62568,214.772,20.987,62.572
62600,214.835,21.068,62.518
62627,215.215,21.339,62.7
62670,215.241,21.431,62.685
62704,214.999,21.301,62.649
62738,215.108,21.377,62.78
62765,215.253,21.518,62.676
62803,215.326,21.617,62.75
62829,215.529,21.844,62.802
62872,215.571,21.9,62.806
62896,215.53,21.881,62.829
62930,215.205,21.614,62.667
62956,214.441,20.821,62.365
63015,214.008,20.254,62.162
63051,213.929,20.111,62.071
63081,214.12,20.203,62.178
63120,214.545,20.526,62.325
63148,214.612,20.632,62.426
63189,214.619,20.703,62.48
63216,214.783,20.836,62.518
63224,214.827,20.907,62.362
63287,214.795,20.869,62.357
63292,214.489,20.622,62.407
63340,214.562,20.661,62.455
63376,214.915,20.994,62.541
63408,215.06,21.174,62.646
63440,214.964,21.024,62.773
63471,215.09,21.135,62.829
63506,215.097,21.275,62.681
63538,215.108,21.296,62.677
63563,215.251,21.408,62.789
63655,215.546,21.631,62.91
63717,215.594,21.718,62.9
63755,215.419,21.662,62.843
63769,215.629,21.813,63.086
63854,215.569,21.82,63.103
63860,215.137,21.454,62.789
63897,214.417,20.71,62.4
63905,214.232,20.3,62.181
63951,214.098,20.1,62.065
63982,214.018,20.064,62.182
64012,214.126,20.164,62.202
64045,214.18,20.205,62.077
64073,214.257,20.273,62.148
64107,214.549,20.461,62.4
64139,214.624,20.558,62.445
64172,214.631,20.595,62.455
64204,214.645,20.578,62.435
64241,214.513,20.459,62.425
64272,214.577,20.523,62.451
64309,214.738,20.731,62.464
64345,214.831,20.85,62.494
64376,214.567,20.672,62.495
64407,214.651,20.756,62.518
64446,214.891,20.903,62.657
64472,214.929,20.971,62.65
64498,215.016,20.997,62.697
64560,215.084,21.079,62.745
64564,215.256,21.343,62.895
64628,215.273,21.393,62.839
64632,215.319,21.464,62.748
64661,215.392,21.526,62.836
64718,215.524,21.635,62.879
64764,215.52,21.672,62.95
64793,215.254,21.473,62.816
64794,214.572,20.823,62.431
64860,213.834,20.047,62.024
64889,213.655,19.74,61.876
64893,213.826,19.805,61.952
64961,213.945,19.879,62.015
64967,213.916,19.878,62.162
65008,213.954,19.911,62.137
65040,214.329,20.132,62.234
65076,214.414,20.254,62.247
65107,214.465,20.355,62.329
65142,214.451,20.348,62.309
65175,214.432,20.341,62.317
65206,214.529,20.399,62.385
65237,214.601,20.458,62.409
65282,214.695,20.561,62.491
65320,214.8,20.686,62.478
65348,214.918,20.815,62.466
65381,214.922,20.815,62.61
65414,215.033,20.904,62.685
65454,214.966,20.924,62.764
65458,215.044,20.991,62.791
65522,215.132,21.125,62.749
65525,215.169,21.171,62.786
65569,215.197,21.141,62.962
65597,215.26,21.206,62.952
65653,215.522,21.487,62.921
65685,215.555,21.505,62.992
65717,215.284,21.331,62.886
65746,214.708,20.774,62.619
65776,214.244,20.217,62.323
65813,213.994,19.867,62.219
65843,214.171,19.907,62.252
65877,214.372,20.08,62.303
65907,214.544,20.274,62.331
65940,214.642,20.407,62.329
65971,214.521,20.298,62.48
66011,214.606,20.363,62.527
66043,214.685,20.517,62.428
66087,214.648,20.477,62.408
66113,214.548,20.342,62.446
66145,214.689,20.448,62.496
66181,214.934,20.662,62.652
66213,215.065,20.795,62.758
66245,215.072,20.822,62.775
66277,215.186,20.976,62.778
66307,215.007,20.919,62.779
66341,215.098,21.024,62.825
66369,215.302,21.123,62.927
66411,215.341,21.216,62.938
66449,215.433,21.328,62.916
66478,215.469,21.353,62.964
66510,215.47,21.431,63.021
66547,215.479,21.441,62.995
66575,215.363,21.301,62.957
66615,214.657,20.623,62.566
66659,213.891,19.746,62.042
66722,214.0,19.797,62.119
66725,214.08,19.873,62.091
66792,213.934,19.783,62.075
66793,213.998,19.828,62.149
66861,214.122,19.973,62.182
66862,214.245,20.073,62.309
66923,214.493,20.3,62.354
66926,214.45,20.284,62.34
66990,214.317,20.089,62.278
66993,214.38,20.11,62.305
67029,214.444,20.25,62.377
67061,214.545,20.331,62.44
67095,214.592,20.435,62.477
67127,214.659,20.524,62.515
67167,214.692,20.598,62.644
67199,214.771,20.658,62.678
67237,214.94,20.741,62.787
67281,214.96,20.798,62.784
67325,214.84,20.776,62.647
67365,214.932,20.842,62.714
67366,214.902,20.898,62.794
67409,214.973,20.944,62.79
67454,215.361,21.151,62.938
67465,215.339,21.209,62.857
67550,215.132,21.144,62.86
67592,214.526,20.614,62.44
67629,213.804,19.868,62.021
67630,213.489,19.457,61.813
67729,213.552,19.399,61.867
67732,213.498,19.289,61.979
67772,213.58,19.367,61.974
67773,213.575,19.388,62.005
67829,213.656,19.47,62.077
67868,214.06,19.775,62.212
67872,214.132,19.896,62.303
67918,214.199,19.999,62.298
67961,214.198,20.003,62.266
68001,213.877,19.805,62.211
68006,214.004,19.864,62.267
68061,214.493,20.191,62.414
68093,214.538,20.294,62.384
68098,214.614,20.336,62.504
68139,214.719,20.422,62.57
68169,214.863,20.561,62.668
68202,214.893,20.649,62.699
68255,214.954,20.732,62.573
68288,215.03,20.795,62.625
68348,214.936,20.776,62.695
68384,214.93,20.848,62.756
68413,215.035,20.949,62.811
68453,215.372,21.185,62.979
68482,215.445,21.308,63.012
68522,215.5,21.31,63.098
68552,215.571,21.414,63.208
68553,215.494,21.437,62.967
68620,214.756,20.741,62.592
68621,213.925,19.847,62.274
68684,213.779,19.593,62.192
68701,213.92,19.642,62.21
68731,214.117,19.802,62.301
68768,214.162,19.947,62.266
68799,214.242,20.027,62.349
68835,214.451,20.219,62.447
68869,214.501,20.299,62.421
68902,214.46,20.242,62.396
68936,214.426,20.199,62.391
68965,214.638,20.387,62.495
68995,214.71,20.447,62.589
69040,214.704,20.459,62.535
69079,214.819,20.585,62.648
69112,214.779,20.563,62.581
69116,214.854,20.646,62.588
69184,215.054,20.809,62.761
69187,215.081,20.885,62.805
69245,215.112,20.945,62.759
69259,215.226,21.051,62.838
69310,215.247,21.115,62.886
69315,215.294,21.192,62.93
69377,215.474,21.32,62.972
69384,215.559,21.433,63.046
69446,215.423,21.428,62.95
69451,215.065,21.148,62.813
69512,214.423,20.406,62.488
69516,213.895,19.846,62.142
69578,213.808,19.666,61.991
69585,213.937,19.718,62.116
69643,213.959,19.754,62.23
69647,214.026,19.818,62.297
69713,214.304,19.974,62.365
69725,214.394,20.093,62.399
69784,214.61,20.274,62.431
69824,214.644,20.321,62.438
69835,214.516,20.296,62.304
69884,214.496,20.278,62.37
69898,214.373,20.172,62.444
69952,214.503,20.31,62.446
69997,214.595,20.385,62.479
70007,214.678,20.475,62.535
70049,214.855,20.618,62.569
70060,214.902,20.699,62.629
70107,215.104,20.883,62.787
70138,215.121,20.975,62.73
70173,214.747,20.71,62.674
70207,214.84,20.789,62.701
70236,215.22,21.043,62.893
70271,215.168,21.093,62.944
70310,215.259,21.158,62.725
70339,215.333,21.255,62.769
70369,215.325,21.309,62.897
70407,215.371,21.407,62.93
70434,215.464,21.362,62.937
70471,214.867,20.918,62.485
70503,213.819,19.978,62.095
70537,213.326,19.37,61.82
70570,213.322,19.229,61.751
70604,213.422,19.269,61.756
70636,213.643,19.46,61.911
70672,213.688,19.534,61.953
70704,213.726,19.484,61.927
70739,213.855,19.597,62.011
70774,214.12,19.877,62.051
70806,214.155,19.935,62.152
70838,214.032,19.859,62.2
70872,214.066,19.888,62.163
70910,213.867,19.803,62.121
70945,214.032,19.908,62.114
70972,214.275,20.069,62.4
71005,214.372,20.212,62.451
71043,214.417,20.283,62.442
71085,214.51,20.36,62.464
71126,214.587,20.436,62.484
71130,214.668,20.545,62.555
71184,214.89,20.761,62.547
71216,214.907,20.834,62.569
71293,214.995,20.896,62.667
71327,214.944,20.854,62.784
71378,214.93,20.931,62.691
71412,214.447,20.531,62.523
71447,213.609,19.706,62.121
71477,213.253,19.258,61.86
71480,213.549,19.376,61.929
71542,213.695,19.488,61.967
71573,213.46,19.39,61.907
71609,213.618,19.5,61.961
71641,214.013,19.783,62.164
71677,214.082,19.865,62.164
71709,213.867,19.783,62.081
71711,213.884,19.773,62.085
71776,213.755,19.705,62.056
71785,213.782,19.706,62.026
71819,214.313,20.055,62.253
71861,214.338,20.116,62.31
71896,214.449,20.179,62.338
71925,214.549,20.306,62.409
71953,214.5,20.36,62.361
71990,214.614,20.442,62.456
72020,214.96,20.661,62.622
72059,214.949,20.717,62.617
72090,214.89,20.677,62.648
72128,214.941,20.751,62.628
72159,214.552,20.553,62.524
72198,214.696,20.662,62.575
72225,214.991,20.89,62.658
72259,214.695,20.725,62.507
72291,214.091,20.159,62.219
72329,213.402,19.471,61.718
72357,213.189,19.086,61.625
72404,213.148,19.025,61.622
72435,213.055,18.981,61.724
72475,213.099,19.015,61.729
72506,213.013,18.992,61.56
72543,213.169,19.073,61.655
72568,213.483,19.284,61.713
72614,213.547,19.397,61.784
72647,213.306,19.211,61.803
72675,213.305,19.175,61.838
72678,213.663,19.374,61.89
72737,213.75,19.452,61.957
72744,213.604,19.485,61.872
72819,213.725,19.587,61.954
72827,213.818,19.7,61.962
72863,213.863,19.786,62.02
72895,214.06,19.94,62.024
72945,214.089,19.993,62.151
72972,214.183,20.035,62.176
73011,214.237,20.114,62.213
73038,214.35,20.252,62.285
73077,214.367,20.328,62.289
73104,214.324,20.316,62.23
73145,214.414,20.409,62.282
73170,214.502,20.487,62.299
73176,214.464,20.502,62.332
73240,214.044,20.235,62.168
73244,213.31,19.518,61.757
73306,212.905,19.003,61.411
73310,212.856,18.855,61.401
73372,212.799,18.809,61.604
73379,212.917,18.917,61.642
73444,212.82,18.829,61.531
73448,212.905,18.891,61.549
73507,213.375,19.213,61.711
73510,213.408,19.257,61.773
73574,213.375,19.305,61.752
73579,213.305,19.258,61.678
73642,213.009,19.023,61.606
73645,213.11,19.09,61.643
73713,213.194,19.179,61.622
73716,213.264,19.254,61.675
73777,213.665,19.529,61.838
73780,213.75,19.613,61.872
73843,213.477,19.497,61.899
73854,213.54,19.529,61.89
73891,213.837,19.626,61.974
73932,213.86,19.713,61.988
73970,214.145,20.022,62.143
74001,214.211,20.086,62.159
74028,214.123,19.96,62.196
74056,214.233,20.079,62.267
74096,214.033,20.069,62.093
74124,213.516,19.698,61.86
74168,213.043,19.235,61.378
74198,212.648,18.793,61.105
74234,212.579,18.57,61.317
74266,212.728,18.665,61.394
74298,212.863,18.794,61.557
74328,212.875,18.85,61.543
74365,212.862,18.844,61.454
74400,212.976,18.93,61.516
74431,213.187,19.127,61.616
74460,213.138,19.128,61.595
74500,213.254,19.171,61.615
74530,213.329,19.226,61.636
74565,213.269,19.241,61.723
74596,213.394,19.376,61.736
74635,213.531,19.464,61.755
74670,213.615,19.572,61.746
74701,213.532,19.53,61.867
74732,213.609,19.59,61.911
74765,213.647,19.678,61.839
74796,213.638,19.674,61.853
74837,213.947,19.899,61.976
74874,213.936,19.932,61.998
74881,213.736,19.778,62.044
74940,213.825,19.854,62.131
75007,213.934,19.969,61.985
75014,214.037,20.113,62.096
75076,213.75,19.97,61.959
75151,212.258,18.643,61.106
75231,211.93,18.148,61.052
75239,211.973,18.245,61.066
75312,212.101,18.348,61.09
75383,212.686,18.713,61.238
75387,212.713,18.804,61.259
75447,212.481,18.658,61.25
75451,212.482,18.642,61.252
75510,212.675,18.73,61.307
75513,212.781,18.785,61.44
75548,212.693,18.87,61.404
75579,212.822,18.98,61.511
75648,212.958,19.121,61.533
75654,213.06,19.222,61.56
75713,213.099,19.303,61.593
75716,213.216,19.397,61.618
75780,213.186,19.291,61.711
75783,213.249,19.378,61.717
75817,213.516,19.571,61.745
75848,213.575,19.624,61.822
75889,213.597,19.704,61.783
75929,213.673,19.745,61.913
75972,213.6,19.807,61.72
76007,213.647,19.836,61.767
76008,213.081,19.489,61.563
76052,212.315,18.815,61.072
76089,211.956,18.323,60.892
76119,211.896,18.175,60.867
76155,211.507,17.888,60.853
76189,211.732,18.043,61.03
76220,212.23,18.405,61.324
76248,212.24,18.47,61.278
76286,212.531,18.69,61.285
76314,212.624,18.795,61.348
76353,212.531,18.756,61.268
76386,212.477,18.729,61.207
76431,212.409,18.671,61.142
76462,212.535,18.75,61.257
76504,212.863,18.961,61.471
76536,212.907,19.056,61.51
76575,213.09,19.166,61.658
76607,213.165,19.272,61.706
76641,213.679,19.678,61.776
76671,213.707,19.757,61.809
76675,213.334,19.567,61.551
76738,213.471,19.626,61.606
76742,213.643,19.748,61.789
76808,213.733,19.827,61.893
76839,213.508,19.802,61.802
76872,213.557,19.856,61.823
76901,213.189,19.603,61.522
76907,212.413,18.913,61.177
76991,212.151,18.501,60.985
77031,212.045,18.314,60.88
77040,211.958,18.262,60.881
77079,212.11,18.369,60.989
77093,211.864,18.187,61.073
77150,211.991,18.256,61.113
77183,212.326,18.535,61.197
77190,212.41,18.664,61.163
77236,212.316,18.616,61.361
77277,212.314,18.61,61.285
77310,212.433,18.717,61.23
77318,212.472,18.716,61.294
77359,212.814,18.96,61.329
77406,212.896,19.076,61.393
77411,212.929,19.056,61.508
77474,213.005,19.139,61.55
77506,213.22,19.33,61.585
77539,213.236,19.4,61.562
77574,212.894,19.166,61.558
77599,212.977,19.215,61.571
77615,213.473,19.597,61.715
77668,213.501,19.651,61.834
77673,213.575,19.713,61.802
77732,213.644,19.805,61.793
77776,213.79,19.976,61.81
77800,213.722,19.953,61.911
77839,213.135,19.468,61.601
77868,212.344,18.776,61.173
77907,211.609,18.123,60.753
77928,211.625,17.979,60.742
77976,211.384,17.855,60.791
78006,211.553,17.943,60.934
78008,211.755,18.06,60.904
78061,211.818,18.117,61.006
78104,211.839,18.265,60.962
78131,211.997,18.391,61.038
78173,212.157,18.481,61.081
78204,212.077,18.44,60.999
78209,211.976,18.335,60.988
78273,212.094,18.392,61.037
78277,212.388,18.627,61.149
78337,212.472,18.724,61.176
78340,212.444,18.736,61.218
78408,212.569,18.815,61.256
78411,213.171,19.329,61.466
78464,213.172,19.38,61.535
78508,212.921,19.239,61.342
78542,213.066,19.309,61.462
78543,213.321,19.454,61.61
78604,213.363,19.529,61.606
78607,213.32,19.497,61.61
78670,213.401,19.534,61.672
78679,213.536,19.658,61.724
78735,213.581,19.729,61.779
78739,213.471,19.712,61.777
78799,212.857,19.243,61.383
78803,212.093,18.556,60.983
78877,211.763,18.128,60.809
78943,211.833,18.151,60.892
79004,212.067,18.312,61.163
79017,212.042,18.331,61.064
79050,212.149,18.449,61.115
79092,212.801,18.815,61.467
79120,212.686,18.781,61.347
79162,212.443,18.696,61.182
79195,212.527,18.735,61.219
79229,212.438,18.659,61.206
79260,212.549,18.753,61.301
79292,212.833,18.955,61.448
79323,212.94,19.045,61.518
79367,213.277,19.326,61.628
79402,213.291,19.378,61.611
79431,213.05,19.212,61.618
79461,213.221,19.326,61.725
79493,213.483,19.592,61.745
79524,213.529,19.657,61.723
79562,213.827,19.898,61.899
79592,213.77,19.919,61.865
79628,212.989,19.352,61.558
79661,212.295,18.688,61.198
79701,211.875,18.288,60.936
79727,211.861,18.167,60.876
79759,211.607,18.025,60.849
79793,211.839,18.157,60.984
79834,212.544,18.674,61.185
79867,212.594,18.793,61.197
79874,212.962,18.945,61.458
79962,213.014,19.032,61.468
80002,212.738,18.954,61.211
80033,212.454,18.763,61.28
80048,212.582,18.839,61.28
80107,212.928,19.026,61.495
80109,213.008,19.119,61.52
80172,213.146,19.272,61.492
80241,213.4,19.471,61.706
80252,213.486,19.557,61.742
80288,213.369,19.483,61.709
80329,213.448,19.557,61.711
80363,213.646,19.74,61.74
80400,213.708,19.809,61.766
80431,213.651,19.858,61.834
80461,213.723,19.923,61.845
80491,213.796,19.958,61.916
80531,213.598,19.857,61.91
80560,212.817,19.246,61.484
80567,212.093,18.546,61.112
80632,211.753,18.177,60.889
80633,211.787,18.12,60.819
80690,211.591,17.951,60.873
80730,211.748,18.045,61.004
80758,211.964,18.223,61.128
80803,212.048,18.292,61.157
80835,212.175,18.415,61.149
80903,212.347,18.634,61.211
80931,212.302,18.61,61.145
80934,212.254,18.465,61.137
80989,212.366,18.543,61.239
81030,212.488,18.783,61.179
81059,212.611,18.889,61.306
81101,212.917,19.052,61.406
81128,212.976,19.141,61.508
81136,213.374,19.367,61.635
81194,213.396,19.421,61.679
81201,213.389,19.494,61.636
81261,213.462,19.559,61.681
81272,213.153,19.355,61.577
81324,213.239,19.419,61.604
81369,213.376,19.511,61.679
81408,213.461,19.574,61.73
81440,213.539,19.726,61.707
81443,213.006,19.361,61.519
81485,212.171,18.678,61.011
81517,211.784,18.212,60.766
81549,211.918,18.126,60.902
81579,212.152,18.274,61.023
81615,212.081,18.274,61.19
81647,212.264,18.423,61.253
81686,212.505,18.59,61.303
81716,212.631,18.706,61.381
81751,212.886,18.881,61.495
81785,212.875,18.897,61.507
81815,212.718,18.828,61.302
81848,212.84,18.897,61.367
81883,212.805,18.919,61.567
81910,212.951,19.057,61.629
81949,212.976,19.117,61.637
81981,213.121,19.26,61.717
82016,213.366,19.381,61.721
82050,213.472,19.482,61.752
82093,213.417,19.508,61.734
82125,213.545,19.63,61.732
82167,213.851,19.839,61.948
82195,213.881,19.892,61.987
82199,213.902,19.932,61.994
82267,213.828,19.929,61.93
82273,213.133,19.478,61.542
82334,212.362,18.754,61.161
82340,211.931,18.228,61.013
82387,211.932,18.136,61.004
82423,211.858,18.134,61.125
82468,212.022,18.238,61.202
82497,212.356,18.475,61.16
82500,212.499,18.572,61.276
82564,212.619,18.721,61.374
82568,212.698,18.798,61.412
82630,212.628,18.823,61.423
82667,212.549,18.771,61.324
82696,212.788,18.817,61.4
82736,212.887,18.898,61.472
82768,213.019,19.044,61.553
82829,213.169,19.208,61.552
82893,213.423,19.46,61.702
82933,213.478,19.515,61.745
82964,213.22,19.379,61.697
83006,213.293,19.425,61.683
83036,213.65,19.717,61.835
83065,213.699,19.809,61.852
83069,213.864,19.871,62.014
83137,213.878,19.912,61.955
83158,213.305,19.538,61.632
83195,212.459,18.796,61.19
83248,211.996,18.297,60.91
83262,211.928,18.151,60.87
83306,211.463,17.814,60.87
83319,211.657,17.911,60.992
83369,211.767,18.074,60.931
83377,211.873,18.124,61.028
83448,212.284,18.466,61.222
83488,212.63,18.684,61.456
83520,212.532,18.671,61.381
83550,212.595,18.677,61.309
83586,212.663,18.743,61.376
83616,212.709,18.765,61.341
83655,212.79,18.857,61.404
83689,212.693,18.836,61.408
83723,212.79,18.915,61.496
83755,213.024,19.089,61.488
83790,213.112,19.155,61.592
83824,213.027,19.185,61.523
83877,213.136,19.28,61.566
83906,213.28,19.453,61.614
83916,213.356,19.525,61.683
83953,213.569,19.602,61.876
83980,213.678,19.715,61.904
84018,213.678,19.789,61.706
84049,213.529,19.739,61.689
84092,212.83,19.144,61.483
84128,212.106,18.447,61.114
84159,212.082,18.257,60.954
84197,212.203,18.289,61.024
84201,211.974,18.167,61.21
84272,212.133,18.283,61.283
84276,212.462,18.564,61.302
84340,212.546,18.657,61.375
84343,212.788,18.748,61.44
84412,212.755,18.78,61.429
84416,212.588,18.747,61.317
84454,212.607,18.774,61.327
84489,212.831,18.869,61.475
84522,212.902,18.945,61.461
84552,212.798,18.864,61.549
84590,212.964,18.997,61.589
84625,213.169,19.211,61.564
84656,213.238,19.288,61.657
84696,213.22,19.285,61.665
84728,213.311,19.355,61.699
84758,213.346,19.456,61.761
84761,213.447,19.538,61.853
84818,213.581,19.644,61.807
84861,213.663,19.723,61.856
84886,213.752,19.741,61.905
84933,213.293,19.43,61.694
84960,212.587,18.867,61.224
84992,212.12,18.356,60.931
85022,212.1,18.28,60.959
85052,212.269,18.346,61.096
85091,212.474,18.504,61.338
85119,212.549,18.602,61.363
85162,212.481,18.589,61.325
85190,212.635,18.703,61.407
85202,212.584,18.732,61.362
85232,212.585,18.752,61.345
85278,212.595,18.743,61.247
85312,212.602,18.731,61.234
85342,212.769,18.862,61.395
85374,212.865,18.94,61.485
85419,212.895,18.9,61.525
85445,212.95,18.989,61.525
85477,213.205,19.243,61.619
85507,213.236,19.316,61.648
85534,213.164,19.235,61.692
85575,213.252,19.321,61.643
85603,213.316,19.452,61.745
85641,213.364,19.509,61.741
85668,213.4,19.537,61.691
85706,213.455,19.607,61.679
85732,213.972,19.894,61.924
85773,214.017,19.978,61.945
85799,213.615,19.697,61.918
85841,213.439,19.607,61.772
85867,212.596,19.064,61.304
85909,211.815,18.324,60.875
85938,211.629,17.981,60.782
85986,211.689,17.993,60.743
86014,211.701,18.003,60.905
86047,211.852,18.084,61.067
86079,211.794,18.048,61.014
86112,211.903,18.148,61.055
86143,212.085,18.318,61.112
86173,212.169,18.439,61.165
86211,212.13,18.424,61.053
86253,212.111,18.409,61.053
86298,212.477,18.57,61.203
86331,212.517,18.621,61.299
86335,212.294,18.538,61.157
86382,212.424,18.63,61.238
86417,212.85,18.93,61.332
86461,212.9,19.023,61.383
86489,213.022,19.088,61.49
86498,213.089,19.149,61.518
86557,213.23,19.294,61.604
86598,213.268,19.352,61.609
86629,213.384,19.421,61.674
86630,213.453,19.503,61.688
86693,213.377,19.524,61.766
86694,213.475,19.627,61.82
86760,213.224,19.454,61.598
86797,212.704,19.077,61.332
86826,212.196,18.573,61.028
86862,211.769,18.11,60.799
86897,211.619,17.954,60.825
86901,211.852,18.074,60.994
86934,211.808,18.099,61.083
86987,211.941,18.184,61.126
86991,212.015,18.245,61.206
87053,212.157,18.389,61.185
87058,212.623,18.632,61.304
87122,212.52,18.603,61.207
87125,212.084,18.386,61.197
87193,212.2,18.454,61.26
87197,212.463,18.605,61.269
87256,212.582,18.727,61.418
87268,212.78,18.917,61.368
87324,212.895,19.033,61.439
87334,213.145,19.228,61.532
87395,213.15,19.278,61.508
87398,213.088,19.199,61.633
87456,213.172,19.299,61.593
87462,213.127,19.344,61.564
87526,213.24,19.428,61.567
87551,213.572,19.547,61.76
87578,213.531,19.57,61.735
87606,213.161,19.464,61.541
87646,212.398,18.809,61.21
87674,211.852,18.198,60.948
87717,211.779,18.019,60.941
87747,211.722,17.895,60.941
87781,211.925,18.064,61.02
87815,211.968,18.149,61.121
87853,212.035,18.223,61.139
87881,212.088,18.31,61.142
87911,212.266,18.454,61.222
87947,211.999,18.303,61.089
87978,212.014,18.295,61.071
88015,212.289,18.469,61.14
88051,212.356,18.553,61.185
88082,212.612,18.671,61.404
88113,212.678,18.769,61.42
88151,212.634,18.752,61.36
88187,212.735,18.86,61.427
88220,213.009,19.098,61.497
88256,213.032,19.167,61.52
88288,213.208,19.268,61.538
88304,213.258,19.303,61.502
88361,212.953,19.185,61.486
88370,213.024,19.25,61.437
88425,213.41,19.463,61.599
88492,213.285,19.54,61.615
88564,212.146,18.596,60.962
