time,R,G,B
0,231.48,68.632,17.305
33,231.508,68.688,17.263
68,231.528,68.733,17.232
103,231.475,68.804,17.211
133,231.467,68.864,17.071
167,231.471,68.99,17.029
200,231.467,69.099,16.981
235,231.459,69.207,17.164
267,231.461,69.382,17.083
301,231.551,69.577,17.084
334,231.615,69.785,17.106
367,231.509,69.794,17.079
402,231.119,69.162,17.111
434,230.914,68.325,17.124
468,230.786,67.607,17.087
504,230.858,67.218,17.184
537,230.857,66.937,17.365
572,230.775,66.677,17.391
610,230.75,66.447,17.207
635,230.748,66.389,17.204
668,230.811,66.363,17.331
701,230.77,66.294,17.282
735,230.772,66.249,17.271
769,230.759,66.194,17.274
802,230.756,66.25,17.211
836,230.774,66.335,17.225
870,230.805,66.414,17.237
901,230.758,66.466,17.159
948,230.82,66.73,17.208
969,230.734,66.802,17.162
1002,230.781,66.912,17.129
1059,230.808,67.107,17.098
1070,230.921,67.338,17.138
1108,230.856,67.464,17.12
1144,230.866,67.575,17.125
1172,230.899,67.803,17.131
1219,230.892,67.994,17.168
1241,230.902,68.138,17.081
1273,230.629,67.682,17.117
1306,230.346,66.784,17.085
1339,230.211,66.027,16.984
1374,230.153,65.495,17.068
1425,230.127,65.093,17.179
1464,230.072,64.83,17.268
1484,230.065,64.718,17.122
1509,230.043,64.616,17.136
1539,230.036,64.551,17.087
1578,230.0,64.485,17.099
1613,229.948,64.418,17.122
1662,229.945,64.372,17.097
1687,229.906,64.349,17.088
1708,229.931,64.371,17.153
1769,229.956,64.547,17.022
1782,229.991,64.691,17.01
1810,229.975,64.818,16.936
1854,230.026,65.004,16.801
1880,230.02,65.172,17.026
1911,230.058,65.367,16.992
1945,230.131,65.609,16.864
2047,230.156,65.826,16.884
2076,230.228,66.045,16.901
2084,230.194,66.34,16.84
2103,230.207,66.488,16.809
2134,230.248,66.762,16.776
2182,230.272,66.963,16.785
2217,230.147,66.899,16.827
2257,229.796,66.058,16.803
2269,229.546,65.054,16.881
2289,229.379,64.292,16.938
2313,229.316,63.83,17.105
2442,229.316,63.649,17.158
2458,229.301,63.488,17.123
2469,229.316,63.291,17.089
2491,229.246,63.107,17.078
2510,229.246,63.107,17.078
2530,229.307,63.103,17.084
2558,229.256,63.057,17.12
2581,229.265,63.091,17.083
2614,229.316,63.17,17.112
2648,229.366,63.297,17.111
2695,229.357,63.428,17.149
2726,229.38,63.625,17.116
2747,229.502,63.949,17.089
2781,229.495,64.122,17.099
2813,229.502,64.265,17.083
2847,229.548,64.498,17.082
2880,229.564,64.714,17.054
2914,229.62,64.962,17.086
2949,229.684,65.233,16.99
3017,229.729,65.479,17.006
3032,229.75,65.788,17.078
3065,229.803,66.041,17.028
3099,229.791,66.243,16.965
3132,229.851,66.523,16.967
3155,229.776,66.682,16.903
3199,229.473,66.311,16.836
3222,229.191,65.421,16.736
3254,228.991,64.453,16.784
3297,228.91,63.716,17.125
3321,228.936,63.359,17.19
3349,228.908,63.132,17.111
3391,228.871,62.916,17.137
3433,228.748,62.717,16.989
3449,228.771,62.7,16.944
3484,228.752,62.637,17.003
3518,228.705,62.597,17.019
3549,228.762,62.662,17.118
3583,228.798,62.706,17.132
3618,228.765,62.69,17.038
3651,228.796,62.846,17.113
3685,228.926,63.17,16.974
3731,228.963,63.359,16.949
3759,228.984,63.501,17.044
3785,229.041,63.737,17.039
3818,229.115,63.922,17.036
3868,229.184,64.181,16.999
3884,229.209,64.426,16.903
3917,229.263,64.681,16.922
3951,229.289,64.963,16.918
4000,229.372,65.242,16.874
4026,229.409,65.515,16.911
4062,229.378,65.735,16.88
4102,229.401,66.043,16.886
4136,229.502,66.389,16.944
4152,229.391,66.454,16.759
4185,229.063,65.831,16.683
4219,228.766,64.836,16.815
4252,228.574,63.807,16.859
4285,228.458,63.15,16.724
4335,228.424,62.844,16.804
4354,228.46,62.685,17.006
4386,228.453,62.547,16.961
4419,228.407,62.492,16.872
4453,228.413,62.509,16.907
4487,228.449,62.466,16.985
4522,228.429,62.422,16.987
4553,228.437,62.453,16.766
4588,228.428,62.516,16.776
4621,228.476,62.636,16.891
4655,228.538,62.842,16.897
4687,228.615,63.108,16.878
4729,228.655,63.349,16.937
4769,228.685,63.507,16.801
4787,228.73,63.717,16.79
4829,228.782,64.063,16.827
4870,228.912,64.394,16.797
4903,228.953,64.635,16.687
4937,229.028,64.941,16.674
4962,229.063,65.1,16.704
5014,229.107,65.383,16.66
5025,229.183,65.815,16.713
5062,229.247,66.124,16.741
5087,229.234,66.358,16.663
5137,229.135,66.408,16.619
5155,228.754,65.624,16.429
5204,228.495,64.563,16.525
5238,228.277,63.594,16.866
5271,228.257,63.053,16.898
5304,228.171,62.625,16.859
5339,228.159,62.466,16.886
5371,228.24,62.406,16.837
5398,228.172,62.329,16.853
5437,228.218,62.435,16.86
5469,228.205,62.394,16.854
5504,228.094,62.265,16.878
5538,228.083,62.284,16.813
5572,228.109,62.329,16.918
5606,228.149,62.49,16.907
5639,228.271,62.723,16.861
5672,228.321,62.951,16.855
5706,228.372,63.228,16.739
5739,228.506,63.552,16.741
5782,228.597,63.779,16.847
5797,228.678,64.062,16.805
5840,228.624,64.246,16.724
5874,228.676,64.519,16.698
5908,228.736,64.815,16.78
5931,228.794,65.124,16.675
5973,228.784,65.433,16.652
6005,228.802,65.707,16.597
6047,228.927,66.084,16.562
6060,228.83,66.329,16.546
6098,228.594,66.044,16.549
6141,228.231,65.012,16.55
6172,228.021,63.822,16.601
6209,227.888,62.882,16.686
6240,227.79,62.565,16.699
6275,227.772,62.321,16.757
6299,227.818,62.097,16.834
6341,227.836,62.04,16.862
6368,227.825,62.065,16.795
6406,227.816,62.058,16.737
6439,227.926,62.068,16.806
6473,227.901,62.047,16.79
6505,227.847,62.098,16.729
6539,227.918,62.24,16.738
6574,227.973,62.411,16.767
6608,228.047,62.672,16.692
6642,228.009,62.866,16.575
6675,228.081,63.074,16.613
6709,228.134,63.362,16.652
6741,228.213,63.63,16.572
6788,228.28,63.876,16.635
6805,228.319,64.133,16.626
6842,228.419,64.487,16.672
6876,228.452,64.787,16.641
6910,228.448,65.103,16.725
6944,228.505,65.405,16.655
6979,228.575,65.715,16.623
7010,228.534,65.889,16.587
7065,228.244,65.385,16.616
7088,227.864,64.177,16.654
7101,227.531,63.003,16.533
7142,227.39,62.103,16.631
7176,227.404,61.54,16.838
7209,227.333,61.221,16.858
7244,227.342,61.023,16.851
7288,227.325,60.938,16.86
7305,227.329,60.869,16.848
7344,227.293,60.821,16.851
7377,227.308,60.811,16.896
7403,227.266,60.754,16.861
7443,227.281,60.771,16.802
7477,227.321,60.921,16.88
7509,227.364,61.071,16.683
7543,227.523,61.415,16.689
7577,227.511,61.648,16.678
7612,227.559,61.924,16.666
7644,227.63,62.184,16.913
7677,227.784,62.55,16.904
7711,227.814,62.855,16.685
7744,227.874,63.139,16.689
7776,227.884,63.368,16.688
7809,227.841,63.543,16.586
7843,227.86,63.854,16.503
7876,227.902,64.123,16.459
7911,228.041,64.494,16.612
7944,228.118,64.875,16.581
7977,227.945,64.797,16.457
8010,227.532,63.985,16.448
8045,227.199,62.797,16.582
8102,226.982,61.702,16.568
8114,226.881,61.008,16.725
8144,226.928,60.766,16.726
8179,226.883,60.456,16.703
8212,226.831,60.298,16.693
8246,226.914,60.28,16.829
8280,226.905,60.258,16.834
8327,226.897,60.232,16.865
8354,226.874,60.165,16.856
8388,226.804,60.115,16.747
8406,226.786,60.151,16.701
8446,226.82,60.288,16.626
8479,226.858,60.447,16.654
8514,226.875,60.676,16.692
8547,226.943,60.905,16.701
8581,227.01,61.165,16.685
8622,227.077,61.402,16.734
8648,227.16,61.671,16.727
8680,227.185,61.9,16.733
8714,227.203,62.112,16.667
8747,227.27,62.385,16.618
8780,227.359,62.699,16.641
8813,227.406,62.954,16.588
8846,227.529,63.316,16.559
8880,227.646,63.651,16.604
8914,227.388,63.426,16.548
8947,226.892,62.286,16.556
8980,226.614,61.05,16.753
9014,226.492,60.196,16.759
9047,226.467,59.789,16.733
9080,226.46,59.587,16.809
9149,226.491,59.4,16.722
9160,226.597,59.442,16.747
9188,226.633,59.401,16.878
9242,226.577,59.371,16.819
9255,226.462,59.404,16.727
9288,226.411,59.342,16.684
9339,226.517,59.46,16.617
9373,226.543,59.568,16.628
9414,226.54,59.765,16.74
9432,226.626,60.041,16.755
9451,226.628,60.215,16.653
9482,226.613,60.422,16.587
9516,226.67,60.748,16.559
9549,226.7,60.992,16.54
9583,226.793,61.279,16.629
9617,226.84,61.53,16.588
9650,226.967,61.874,16.527
9683,227.161,62.27,16.557
9717,227.198,62.611,16.606
9751,227.205,62.855,16.516
9783,227.068,62.984,16.405
9817,226.676,62.192,16.377
9851,226.306,60.822,16.546
9883,226.099,59.719,16.562
9918,226.04,59.09,16.718
9951,226.042,58.758,16.782
9984,226.088,58.531,16.714
10017,226.086,58.393,16.724
10051,226.135,58.374,16.735
10085,226.138,58.445,16.705
10130,226.051,58.308,16.683
10168,226.03,58.235,16.661
10185,225.98,58.185,16.596
10218,226.041,58.264,16.633
10251,226.091,58.333,16.656
10285,226.111,58.489,16.658
10336,226.19,58.664,16.707
10378,226.175,58.73,16.704
10389,226.095,58.748,16.499
10427,226.081,58.799,16.466
10468,226.116,58.939,16.503
10502,226.138,59.067,16.457
10518,226.191,59.18,16.508
10560,226.225,59.408,16.506
10584,226.249,59.725,16.603
10618,226.292,60.018,16.555
10651,226.174,60.053,16.494
10684,225.871,59.24,16.467
10719,225.556,57.733,16.589
10768,225.325,56.349,16.613
10783,225.234,55.49,16.68
10833,225.138,54.853,16.645
10867,224.997,54.269,16.856
10900,224.943,53.9,16.965
10954,224.965,53.78,16.637
10985,224.922,53.664,16.623
11000,224.945,53.518,16.705
11033,224.912,53.418,16.729
11069,224.983,53.351,16.709
11103,224.986,53.446,16.668
11132,224.984,53.689,16.651
11153,225.096,54.03,16.67
11202,225.126,54.298,16.719
11235,225.231,54.646,16.695
11268,225.323,55.041,16.69
11300,225.427,55.388,16.627
11336,225.554,55.841,16.612
11368,225.654,56.217,16.554
11394,225.65,56.446,16.651
11429,225.705,56.797,16.604
11469,225.782,57.114,16.491
11504,225.919,57.557,16.52
11522,225.844,57.636,16.626
11562,225.402,56.734,16.54
11604,225.079,55.378,16.608
11636,224.799,54.146,16.606
11671,224.702,53.458,16.729
11707,224.679,53.078,16.738
11739,224.644,52.786,16.854
11755,224.643,52.594,16.846
11796,224.65,52.45,16.651
11839,224.651,52.378,16.67
11873,224.597,52.317,16.652
11906,224.584,52.231,16.673
11940,224.642,52.181,16.666
11987,224.709,52.303,16.699
11996,224.707,52.464,16.575
12039,224.743,52.695,16.584
12074,224.786,53.011,16.675
12105,224.891,53.312,16.676
12138,224.846,53.447,16.592
12172,224.904,53.713,16.571
12197,224.912,53.929,16.584
12238,225.078,54.244,16.631
12274,225.178,54.532,16.626
12305,225.274,54.871,16.581
12342,225.306,55.161,16.525
12369,225.064,54.76,16.5
12406,224.746,53.672,16.541
12441,224.552,52.398,16.597
12473,224.517,51.575,16.643
12507,224.533,51.171,16.675
12540,224.548,51.062,16.571
12575,224.542,50.96,16.591
12608,224.598,50.875,16.589
12642,224.619,50.933,16.575
12674,224.682,51.041,16.597
12708,224.674,50.996,16.611
12741,224.631,51.02,16.54
12775,224.581,51.06,16.443
12809,224.692,51.198,16.467
12840,224.77,51.447,16.467
12875,224.81,51.755,16.58
12908,224.944,52.111,16.54
12940,224.949,52.388,16.662
12974,225.036,52.693,16.686
13017,225.078,53.004,16.72
13032,225.095,53.308,16.652
13074,225.063,53.55,16.592
13107,225.155,53.906,16.574
13141,225.264,54.285,16.564
13203,225.109,54.273,16.494
13223,224.777,53.47,16.352
13240,224.58,52.09,16.459
13273,224.531,50.976,16.537
13307,224.431,50.221,16.617
13341,224.4,49.88,16.58
13374,224.318,49.508,16.61
13412,224.446,49.281,16.615
13442,224.387,49.162,16.62
13475,224.304,49.132,16.564
13525,224.285,49.079,16.546
13542,224.294,49.007,16.579
13577,224.304,49.032,16.552
13610,224.331,49.192,16.537
13643,224.409,49.394,16.498
13677,224.472,49.641,16.393
13710,224.525,49.893,16.355
13745,224.607,50.155,16.348
13776,224.648,50.448,16.394
13810,224.676,50.684,16.539
13843,224.841,51.048,16.579
13877,224.927,51.459,16.441
13910,224.984,51.759,16.452
13943,225.031,51.966,16.557
13975,225.02,52.235,16.512
14009,225.048,52.699,16.463
14044,224.974,52.812,16.428
14078,224.693,52.009,16.355
14112,224.504,50.811,16.383
14144,224.347,49.726,16.54
14178,224.127,48.885,16.53
14220,224.11,48.451,16.529
14252,224.04,48.074,16.521
14278,224.007,47.772,16.414
14311,224.026,47.696,16.356
14348,224.075,47.636,16.535
14382,224.075,47.624,16.512
14414,224.118,47.621,16.421
14444,224.12,47.622,16.439
14477,224.153,47.661,16.452
14512,224.201,47.866,16.445
14558,224.207,48.041,16.421
14594,224.226,48.296,16.429
14611,224.277,48.551,16.515
14644,224.262,48.791,16.487
14677,224.35,49.152,16.334
14710,224.433,49.479,16.396
14745,224.552,49.733,16.408
14777,224.59,50.043,16.376
14811,224.656,50.454,16.409
14844,224.772,50.805,16.401
14878,224.814,51.113,16.485
14912,224.906,51.513,16.463
14945,225.024,51.965,16.422
14978,224.87,51.892,16.416
15012,224.516,50.94,16.504
15046,224.29,49.765,16.597
15079,224.123,48.861,16.542
15113,224.079,48.351,16.513
15147,224.18,48.081,16.564
15180,224.176,47.777,16.561
15248,224.146,47.6,16.553
15262,224.181,47.579,16.576
15290,224.168,47.47,16.517
15318,224.179,47.469,16.496
15352,224.175,47.454,16.388
15440,224.18,47.707,16.473
15458,224.226,47.918,16.509
15505,224.209,48.132,16.467
15535,224.238,48.366,16.44
15564,224.272,48.602,16.427
15581,224.359,48.916,16.387
15623,224.381,49.192,16.362
15663,224.418,49.491,16.359
15679,224.573,49.908,16.404
15712,224.646,50.264,16.36
15747,224.712,50.59,16.403
15781,224.79,50.949,16.387
15815,224.842,51.335,16.246
15850,224.916,51.706,16.221
15882,224.836,51.885,16.257
15915,224.644,51.395,16.311
15950,224.371,50.399,16.242
15982,224.24,49.576,16.264
16016,224.21,49.198,16.456
16050,224.173,48.92,16.419
16082,224.254,48.775,16.459
16116,224.228,48.643,16.455
16150,224.311,48.667,16.435
16183,224.308,48.744,16.418
16231,224.301,48.859,16.362
16258,224.318,48.895,16.285
16299,224.323,48.93,16.392
16317,224.282,49.018,16.405
16352,224.354,49.269,16.373
16386,224.416,49.524,16.374
16416,224.509,49.787,16.4
16450,224.541,50.068,16.372
16483,224.639,50.43,16.285
16516,224.726,50.717,16.36
16567,224.793,50.963,16.422
16584,224.81,51.194,16.409
16626,224.918,51.608,16.362
16667,224.928,51.881,16.368
16701,224.994,52.198,16.316
16724,224.9,52.404,16.222
16750,224.817,52.432,16.342
16799,224.702,51.903,16.35
16832,224.517,51.176,16.22
16850,224.483,50.565,16.317
16892,224.373,50.199,16.321
16933,224.327,49.998,16.284
16966,224.376,49.903,16.327
16999,224.386,49.922,16.323
17032,224.395,49.922,16.32
17059,224.439,50.0,16.295
17099,224.457,50.131,16.247
17147,224.562,50.247,16.269
17166,224.579,50.335,16.394
17187,224.529,50.422,16.297
17219,224.64,50.666,16.229
17271,224.688,50.901,16.209
17294,224.685,51.134,16.274
17334,224.692,51.329,16.308
17367,224.675,51.515,16.089
17392,224.675,51.711,16.117
17434,224.749,52.004,16.252
17468,224.775,52.305,16.239
17501,224.743,52.532,16.233
17535,224.744,52.728,16.24
17568,224.567,52.521,16.256
17601,224.4,51.811,16.283
17635,224.294,51.047,16.089
17668,224.258,50.568,16.107
17701,224.303,50.375,16.153
17736,224.229,50.212,16.163
17768,224.26,50.094,16.132
17802,224.263,50.117,16.113
17837,224.219,50.091,16.039
17868,224.232,50.191,16.056
17903,224.259,50.193,16.062
17937,224.311,50.303,16.11
17970,224.34,50.446,16.116
18003,224.389,50.602,16.119
18037,224.517,50.918,16.195
18070,224.562,51.187,16.214
18104,224.589,51.429,16.09
18147,224.596,51.666,16.075
18164,224.583,51.934,16.038
18205,224.678,52.219,16.059
18237,224.687,52.515,16.063
18279,224.63,52.701,15.98
18301,224.513,52.698,16.042
18335,224.34,52.177,16.06
18361,224.166,51.41,16.107
18396,224.113,50.794,16.158
18440,224.144,50.458,16.069
18472,224.148,50.331,16.075
18496,224.158,50.275,16.072
18539,224.198,50.326,16.093
18572,224.213,50.429,15.967
18606,224.213,50.503,15.962
18650,224.139,50.528,16.053
18666,224.146,50.567,16.049
18705,224.237,50.66,16.091
18739,224.289,50.803,16.084
18772,224.364,51.09,16.014
18805,224.484,51.394,16.018
18839,224.522,51.63,15.964
18874,224.541,51.894,15.977
18906,224.516,52.118,15.945
18940,224.491,52.363,15.927
18973,224.543,52.713,15.915
19007,224.599,53.028,15.918
19040,224.517,53.06,15.872
19073,224.318,52.529,15.888
19107,224.268,51.755,16.114
19140,224.243,51.194,16.069
19174,224.236,50.853,16.036
19208,224.248,50.707,15.989
19241,224.148,50.432,15.88
19274,224.177,50.443,15.866
19304,224.204,50.523,16.001
19340,224.193,50.585,15.98
19375,224.259,50.65,15.912
19407,224.253,50.72,15.904
19450,224.283,50.797,15.934
19467,224.366,51.022,15.992
19507,224.391,51.339,15.947
19543,224.467,51.637,15.925
19575,224.436,51.783,15.946
19608,224.486,52.103,15.97
19654,224.535,52.454,15.975
19672,224.587,52.781,15.993
19709,224.579,53.007,15.905
19742,224.623,53.291,15.904
19774,224.675,53.618,16.041
19809,224.771,53.941,16.064
19842,224.806,54.256,15.936
19876,224.575,54.084,15.903
19908,224.221,53.29,15.982
19942,224.068,52.363,16.035
19975,224.136,51.732,16.032
20008,224.148,51.272,16.057
20042,224.137,50.962,16.016
20075,224.119,50.684,16.014
20109,224.107,50.439,16.134
20151,224.133,50.405,16.127
20167,224.143,50.426,16.036
20207,224.138,50.481,16.015
20243,224.155,50.541,15.977
20276,224.165,50.625,15.982
20341,224.218,50.807,15.962
20353,224.254,51.014,15.905
20391,224.394,51.34,15.917
20419,224.401,51.593,15.885
20452,224.423,51.862,15.952
20485,224.489,52.126,16.029
20514,224.456,52.469,15.927
20565,224.498,52.783,15.894
20599,224.511,53.063,15.827
20632,224.583,53.4,15.789
20644,224.64,53.744,16.021
20677,224.708,54.064,15.987
20711,224.795,54.375,15.87
20744,224.885,54.756,15.853
20777,224.929,55.157,15.824
20810,224.893,55.358,15.818
20845,224.62,55.043,15.836
20877,224.351,54.354,15.816
20910,224.224,53.696,15.881
20944,224.241,53.347,15.964
20978,224.209,53.099,15.819
21012,224.195,52.907,15.842
21045,224.188,52.67,15.827
21078,224.309,52.693,15.875
21111,224.421,52.845,15.843
21144,224.435,52.932,15.842
21189,224.429,53.009,15.867
21219,224.449,53.136,15.928
21244,224.504,53.313,15.851
21279,224.482,53.452,15.832
21324,224.534,53.696,15.768
21347,224.57,53.928,15.752
21387,224.663,54.253,15.875
21430,224.654,54.505,15.825
21447,224.694,54.739,15.813
21480,224.789,55.022,15.841
21513,224.926,55.34,15.75
21547,224.95,55.628,15.685
21580,225.001,55.974,15.769
21613,225.072,56.258,15.75
21647,225.125,56.624,15.736
21681,225.181,56.912,15.741
21714,225.232,57.164,15.822
21746,225.221,57.386,15.796
21780,225.234,57.627,15.761
21815,225.285,57.948,15.701
21848,225.204,58.204,15.755
21882,224.936,58.074,15.682
21914,224.707,57.865,15.59
21948,224.634,57.736,15.579
21981,224.762,57.784,15.707
22016,224.75,57.827,15.67
22047,224.722,57.897,15.608
22083,224.74,57.957,15.577
22115,224.821,58.016,15.667
22148,224.989,58.265,15.74
22196,224.887,58.324,15.611
22231,224.891,58.46,15.594
22248,224.892,58.635,15.579
22282,224.888,58.775,15.552
22315,224.961,58.937,15.421
22373,225.004,59.136,15.448
22397,225.062,59.292,15.582
22417,225.077,59.475,15.512
22448,225.138,59.721,15.545
22482,225.192,59.935,15.511
22515,225.248,60.179,15.432
22549,225.294,60.386,15.4
22583,225.366,60.562,15.52
22616,225.395,60.767,15.474
22649,225.414,60.916,15.429
22683,225.493,61.124,15.416
22716,225.532,61.406,15.419
22765,225.563,61.603,15.406
22782,225.671,61.839,15.443
22831,225.752,62.052,15.462
22850,225.668,62.138,15.312
22900,225.553,62.137,15.291
22917,225.327,62.053,15.36
22950,225.298,62.077,15.326
22984,225.339,62.194,15.307
23033,225.323,62.278,15.268
23051,225.307,62.369,15.427
23084,225.311,62.464,15.329
23116,225.361,62.652,15.291
23151,225.406,62.791,15.293
23197,225.461,62.934,15.362
23242,225.553,63.127,15.397
23255,225.5,63.268,15.248
23283,225.533,63.433,15.256
23318,225.51,63.587,15.357
23382,225.553,63.722,15.353
23394,225.647,63.927,15.289
23432,225.646,64.075,15.252
23465,225.716,64.203,15.231
23498,225.728,64.379,15.208
23532,225.755,64.54,15.322
23566,225.737,64.684,15.263
23600,225.838,64.841,15.275
23634,225.833,64.979,15.228
23667,225.907,65.127,15.193
23700,225.837,65.204,15.189
23734,225.894,65.404,15.163
23759,226.022,65.62,15.164
23800,226.086,65.806,15.082
23835,226.08,65.907,15.123
23867,225.848,65.778,15.228
23901,225.678,65.664,15.164
23934,225.566,65.69,15.214
23967,225.562,65.721,15.212
24001,225.582,65.856,15.163
24033,225.632,65.961,15.164
24068,225.635,66.066,15.126
24102,225.744,66.261,15.137
24136,225.783,66.291,15.071
24169,225.837,66.416,15.157
24212,225.839,66.534,15.122
24228,225.864,66.645,15.097
24272,225.796,66.681,15.128
24294,225.887,66.835,15.139
24337,225.833,66.932,15.058
24362,225.897,67.078,15.082
24399,225.911,67.152,15.085
24435,225.957,67.291,15.101
24468,226.012,67.457,15.129
24502,226.046,67.567,15.176
24535,226.062,67.658,15.164
24570,226.068,67.767,15.088
24603,226.075,67.964,15.122
24637,226.178,68.108,15.034
24671,226.209,68.217,15.125
24704,226.131,68.257,15.054
24737,226.14,68.378,15.007
24769,226.172,68.5,14.944
24804,226.213,68.561,15.048
24839,226.011,68.54,14.998
24870,225.866,68.455,14.858
24903,225.715,68.37,14.834
24936,225.726,68.538,14.874
24972,225.732,68.561,14.86
25005,225.748,68.508,14.914
25040,225.772,68.619,14.89
25072,225.77,68.786,14.741
25107,225.81,68.872,14.768
25138,225.771,68.919,14.788
25171,225.782,68.953,14.81
25205,225.756,68.991,14.799
25251,225.886,69.175,14.843
25269,225.846,69.173,14.908
25307,225.865,69.258,14.954
25340,225.892,69.413,14.791
25376,225.881,69.48,14.807
25412,225.928,69.66,14.765
25445,225.943,69.745,14.77
25472,225.991,69.765,14.864
25505,226.041,69.879,14.865
25538,225.98,69.924,14.798
25571,226.025,70.052,14.827
25605,226.019,70.116,14.733
25640,226.07,70.218,14.683
25672,226.108,70.342,14.782
25705,226.212,70.483,14.795
25739,226.226,70.565,14.762
25772,226.248,70.659,14.798
25805,226.119,70.632,14.688
25838,225.884,70.456,14.715
25871,225.721,70.375,14.654
25905,225.65,70.364,14.603
25940,225.796,70.457,14.751
25973,225.854,70.585,14.782
26005,225.885,70.649,14.719
26040,225.951,70.715,14.74
26074,225.94,70.78,14.829
26106,225.944,70.839,14.785
26140,225.999,70.891,14.793
26174,225.96,70.896,14.799
26207,225.97,70.978,14.758
26240,226.015,71.082,14.76
26283,226.003,71.103,14.738
26323,226.057,71.18,14.815
26338,226.058,71.278,14.745
26373,226.068,71.351,14.775
26407,226.052,71.431,14.711
26435,226.091,71.526,14.735
26473,226.092,71.539,14.731
26507,226.1,71.606,14.749
26541,226.078,71.668,14.503
26573,226.117,71.766,14.57
26607,226.196,71.79,14.839
26641,226.262,71.88,14.807
26674,226.305,72.003,14.653
26707,226.375,72.125,14.682
26741,226.275,72.208,14.643
26775,226.105,72.092,14.558
26809,225.934,71.905,14.687
26842,225.8,71.743,14.661
26875,225.813,71.666,14.635
26908,225.852,71.661,14.579
26944,225.888,71.621,14.634
26977,225.92,71.636,14.656
27009,225.846,71.686,14.57
27043,225.918,71.753,14.538
27076,225.956,71.831,14.529
27111,225.862,71.728,14.511
27144,225.826,71.666,14.533
27178,225.843,71.666,14.521
27210,225.855,71.709,14.573
27244,225.906,71.773,14.639
27292,225.921,71.785,14.704
27311,225.939,71.832,14.68
27343,225.912,71.869,14.56
27384,225.891,71.885,14.556
27426,225.956,71.823,14.695
27487,225.999,71.852,14.699
27505,225.927,71.953,14.652
27535,225.945,71.995,14.68
27569,225.975,71.983,14.76
27603,225.991,72.009,14.785
27636,226.025,72.189,14.631
27667,225.983,72.226,14.548
27701,225.795,71.983,14.502
27734,225.588,71.617,14.543
27767,225.542,71.316,14.671
27783,225.52,71.115,14.664
27811,225.518,71.006,14.783
27846,225.562,70.939,14.81
27879,225.469,70.741,14.741
27930,225.477,70.68,14.733
27945,225.574,70.762,14.651
27980,225.538,70.666,14.643
28030,225.463,70.509,14.682
28045,225.479,70.438,14.772
28079,225.523,70.364,14.847
28113,225.542,70.354,14.848
28146,225.52,70.37,14.784
28181,225.555,70.402,14.755
28213,225.575,70.381,14.776
28247,225.493,70.333,14.74
28280,225.472,70.412,14.685
28327,225.481,70.428,14.739
28353,225.541,70.503,14.799
28387,225.529,70.514,14.78
28428,225.521,70.579,14.814
28462,225.552,70.652,14.85
28496,225.507,70.695,14.641
28514,225.37,70.546,14.643
28546,225.148,70.143,14.796
28581,224.974,69.573,14.838
28615,224.971,69.118,14.751
28648,225.005,68.79,14.758
28681,225.003,68.596,14.853
28715,225.043,68.491,14.923
28748,225.142,68.419,14.933
28779,225.077,68.256,14.912
28813,225.003,68.075,14.977
28858,225.015,67.918,15.015
28896,225.013,67.712,15.04
28931,225.008,67.623,15.012
28949,224.981,67.593,15.013
28981,225.046,67.626,15.023
29016,225.076,67.543,15.018
29064,225.074,67.557,14.99
29098,225.09,67.652,14.899
29130,225.073,67.683,14.914
29148,225.138,67.751,14.94
29199,225.172,67.821,14.979
29231,225.262,67.973,15.165
29264,225.24,68.047,15.128
29297,225.304,68.153,14.977
29323,225.212,68.14,14.925
29365,224.971,67.555,15.018
29391,224.785,66.758,15.103
29432,224.763,66.201,15.041
29457,224.757,65.772,15.06
29496,224.783,65.578,15.16
29533,224.708,65.353,15.17
29557,224.819,65.274,15.129
29599,224.812,65.175,15.134
29632,224.808,65.009,15.139
29667,224.761,64.836,15.182
29684,224.752,64.702,15.203
29733,224.713,64.578,15.223
29767,224.722,64.489,15.212
29783,224.754,64.472,15.25
29825,224.768,64.553,15.177
29863,224.755,64.594,15.105
29899,224.759,64.616,15.349
29932,224.712,64.617,15.257
29966,224.683,64.666,15.118
30000,224.794,64.828,15.119
30035,224.725,64.849,15.195
30053,224.691,64.878,15.184
30100,224.587,64.733,14.977
30135,224.284,63.94,15.09
30168,224.095,62.935,15.166
30203,224.077,62.205,15.24
30234,224.099,61.85,15.218
30269,224.119,61.581,15.247
30292,224.197,61.276,15.364
30337,224.213,61.148,15.341
30365,224.216,60.959,15.288
30394,224.133,60.773,15.227
30433,224.169,60.713,15.214
30467,224.15,60.576,15.256
30500,224.2,60.524,15.297
30537,224.227,60.537,15.333
30560,224.273,60.636,15.312
30602,224.299,60.722,15.385
30636,224.29,60.762,15.359
30670,224.319,60.885,15.354
30693,224.237,60.924,15.275
30736,224.248,61.059,15.267
30771,224.323,61.305,15.312
30794,224.203,61.255,15.259
30836,223.982,60.517,15.151
30869,223.814,59.528,15.261
30904,223.674,58.78,15.315
30927,223.686,58.363,15.328
30970,223.641,58.123,15.315
31003,223.625,57.962,15.303
31038,223.734,57.835,15.34
31073,223.714,57.799,15.353
31104,223.638,57.593,15.298
31137,223.542,57.429,15.334
31170,223.507,57.373,15.384
31206,223.534,57.357,15.369
31237,223.485,57.358,15.269
31269,223.523,57.511,15.261
31303,223.6,57.675,15.295
31337,223.617,57.827,15.273
31380,223.674,58.084,15.198
31397,223.8,58.344,15.226
31430,223.855,58.512,15.331
31470,223.814,58.621,15.343
31505,223.589,58.249,15.255
31547,223.329,57.235,15.328
31571,223.241,56.318,15.344
31605,223.114,55.645,15.318
31639,223.158,55.323,15.342
31672,223.134,55.154,15.363
31705,223.21,55.068,15.34
31738,223.242,55.074,15.379
31769,223.266,55.053,15.325
31803,223.224,54.958,15.314
31836,223.214,54.901,15.341
31872,223.207,54.878,15.376
31906,223.254,54.999,15.467
31952,223.27,55.129,15.405
31969,223.208,55.213,15.363
32005,223.185,55.351,15.33
32038,223.201,55.525,15.344
32071,223.229,55.747,15.347
32105,223.393,56.089,15.39
32138,223.444,56.35,15.394
32171,223.351,56.592,15.279
32206,223.243,56.713,15.218
32239,223.067,56.093,15.202
32273,222.878,54.967,15.167
32307,222.722,53.978,15.297
32339,222.7,53.5,15.335
32379,222.728,53.332,15.354
32411,222.678,53.159,15.341
32439,222.692,53.106,15.381
32472,222.7,53.089,15.374
32505,222.634,53.043,15.281
32539,222.66,53.002,15.306
32576,222.556,52.817,15.274
32606,222.579,52.866,15.311
32639,222.618,53.042,15.283
32672,222.673,53.224,15.328
32706,222.723,53.422,15.309
32739,222.727,53.608,15.296
32775,222.779,53.819,15.238
32808,222.791,54.044,15.156
32840,222.952,54.376,15.234
32874,222.888,54.524,15.206
32908,223.038,54.828,15.299
32940,223.058,55.108,15.286
32984,223.101,55.429,15.257
33016,223.088,55.658,15.275
33039,222.885,55.269,15.203
33072,222.588,54.079,15.19
33108,222.37,52.866,15.375
33139,222.272,52.126,15.43
33174,222.243,51.795,15.284
33207,222.216,51.575,15.339
33240,222.216,51.315,15.268
33277,222.158,51.198,15.291
33309,222.083,51.151,15.227
33342,222.074,51.106,15.207
33378,222.124,51.041,15.243
33414,222.109,51.015,15.204
33444,222.112,50.964,15.32
33486,222.131,51.112,15.339
33504,222.161,51.356,15.217
33543,222.202,51.595,15.18
33616,222.255,51.806,15.191
33632,222.309,52.03,15.209
33650,222.279,52.191,15.218
33681,222.309,52.436,15.254
33719,222.453,52.784,15.277
33764,222.482,53.056,15.234
33793,222.534,53.299,15.211
33816,222.6,53.6,15.184
33854,222.703,53.974,15.135
33893,222.575,53.966,15.162
33916,222.142,52.955,15.292
33945,221.867,51.641,15.317
33977,221.786,50.72,15.416
34012,221.811,50.238,15.477
34044,221.78,49.922,15.311
34078,221.8,49.728,15.314
34112,221.781,49.512,15.336
34144,221.836,49.48,15.351
34178,221.881,49.518,15.379
34211,221.848,49.45,15.361
34245,221.835,49.421,15.255
34279,221.849,49.469,15.331
34311,221.923,49.689,15.237
34346,221.846,49.819,15.175
34379,221.862,50.045,15.245
34412,221.886,50.283,15.278
34446,221.842,50.502,15.223
34494,221.887,50.795,15.163
34519,221.968,51.037,15.273
34544,222.034,51.322,15.284
34590,222.12,51.624,15.219
34620,222.166,51.936,15.157
34644,222.212,52.281,15.255
34677,222.297,52.628,15.195
34710,222.29,52.812,15.287
34745,222.013,52.142,15.293
34787,221.731,50.91,15.255
34828,221.689,49.824,15.283
34861,221.574,49.218,15.277
34879,221.55,48.893,15.296
34911,221.597,48.611,15.413
34961,221.578,48.453,15.427
34979,221.563,48.354,15.238
35021,221.595,48.37,15.262
35062,221.448,48.169,15.277
35080,221.449,48.084,15.333
35114,221.493,48.096,15.307
35155,221.499,48.206,15.268
35180,221.595,48.458,15.345
35230,221.644,48.701,15.359
35248,221.655,48.911,15.234
35297,221.681,49.209,15.177
35331,221.745,49.53,15.161
35364,221.816,49.837,15.254
35391,221.801,50.139,15.233
35427,221.841,50.409,15.256
35455,221.88,50.775,15.195
35495,221.927,51.064,15.168
35529,221.98,51.361,15.172
35564,222.013,51.649,15.124
35597,221.837,51.484,15.093
35637,221.539,50.351,15.092
35653,221.347,48.984,15.218
35699,221.27,48.002,15.327
35716,221.226,47.537,15.257
35766,221.176,47.244,15.274
35797,221.225,47.053,15.328
35832,221.307,47.011,15.365
35866,221.308,46.993,15.362
35890,221.285,46.955,15.344
35931,221.286,46.834,15.335
35957,221.278,46.822,15.34
36001,221.203,46.845,15.153
36037,221.307,47.031,15.13
36059,221.358,47.354,15.16
36099,221.449,47.647,15.192
36130,221.491,47.901,15.206
36164,221.569,48.216,15.206
36197,221.7,48.47,15.265
36230,221.85,48.84,15.323
36266,221.881,49.195,15.249
36297,221.94,49.493,15.216
36331,222.003,49.898,15.139
36365,222.086,50.257,15.162
36391,222.051,50.422,15.254
36433,221.837,49.83,15.221
36467,221.533,48.515,15.231
36500,221.242,47.264,15.232
36533,221.138,46.691,15.263
36567,221.134,46.371,15.285
36602,221.164,46.085,15.261
36661,221.162,45.991,15.238
36669,221.189,46.049,15.206
36701,221.161,46.046,15.169
36737,221.186,46.056,15.211
36759,221.184,46.016,15.179
36802,221.236,46.053,15.228
36835,221.263,46.18,15.234
36868,221.27,46.401,15.256
36902,221.324,46.681,15.28
36935,221.472,47.016,15.328
36969,221.67,47.392,15.357
37003,221.745,47.772,15.435
37036,221.806,48.064,15.419
37083,221.869,48.419,15.218
37101,222.008,48.811,15.203
37135,222.005,49.054,15.198
37171,222.058,49.367,15.199
37193,221.87,49.129,15.187
37235,221.487,47.794,15.195
37269,221.066,46.156,15.22
37305,220.969,45.153,15.25
37336,221.09,44.693,15.382
37369,221.01,44.302,15.311
37397,220.919,43.881,15.263
37436,220.915,43.728,15.228
37469,220.88,43.65,15.229
37504,220.883,43.664,15.228
37537,220.89,43.685,15.278
37583,220.905,43.713,15.299
37600,220.983,43.822,15.215
37636,221.042,44.085,15.153
37676,221.058,44.3,15.217
37702,221.146,44.671,15.242
37738,221.213,45.105,15.242
37769,221.231,45.437,15.239
37802,221.297,45.758,15.175
37835,221.36,46.096,15.213
37869,221.415,46.436,15.205
37903,221.502,46.833,15.226
37938,221.619,47.192,15.135
37974,221.727,47.592,15.186
38004,221.762,47.82,15.131
38038,221.401,46.845,15.127
38071,221.034,45.329,15.135
38105,220.99,44.183,15.156
38137,220.916,43.443,15.269
38171,220.776,42.971,15.234
38204,220.705,42.549,15.267
38238,220.648,42.254,15.318
38269,220.657,42.17,15.291
38303,220.664,42.165,15.226
38337,220.67,42.164,15.225
38380,220.639,42.154,15.272
38396,220.665,42.177,15.275
38439,220.72,42.356,15.18
38473,220.878,42.679,15.267
38513,220.957,43.034,15.266
38554,220.988,43.398,15.241
38596,221.068,43.786,15.226
38637,221.135,44.22,15.265
38718,221.191,44.606,15.284
38733,221.357,45.059,15.251
38752,221.434,45.489,15.214
38796,221.503,45.849,15.306
38833,221.6,46.3,15.315
38867,221.724,46.722,15.322
38894,221.838,47.202,15.279
38946,221.785,47.4,15.26
38977,221.324,46.272,15.179
39011,221.027,44.718,15.29
39031,220.978,43.642,15.309
39072,221.033,43.053,15.451
39108,220.989,42.674,15.449
39142,220.929,42.261,15.406
39191,220.918,42.156,15.347
39224,220.917,42.174,15.271
39257,220.917,42.166,15.302
39308,220.831,42.127,15.221
39341,220.924,42.277,15.29
39386,220.897,42.406,15.35
39415,221.002,42.688,15.378
39440,221.062,43.018,15.296
39489,221.203,43.416,15.309
39524,221.318,43.804,15.324
39557,221.322,44.162,15.306
39590,221.364,44.605,15.28
39633,221.449,45.02,15.28
39672,221.472,45.38,15.335
39716,221.552,45.813,15.283
39741,221.622,46.3,15.253
39775,221.775,46.758,15.289
39826,221.955,47.304,15.303
39859,222.067,47.757,15.246
39892,222.171,48.203,15.337
39925,222.253,48.646,15.293
39961,221.959,48.245,15.317
40010,221.481,46.821,15.27
40044,221.365,45.583,15.274
40076,221.47,44.995,15.342
40110,221.386,44.515,15.474
40158,221.327,44.152,15.456
40193,221.317,43.909,15.33
40226,221.324,43.872,15.338
40276,221.411,43.958,15.287
40301,221.417,43.949,15.345
40344,221.38,43.952,15.41
40386,221.437,44.126,15.396
40411,221.457,44.405,15.357
40451,221.443,44.661,15.353
40494,221.484,44.976,15.263
40527,221.493,45.274,15.303
40562,221.534,45.674,15.281
40602,221.595,46.03,15.276
40644,221.643,46.374,15.277
40695,221.759,46.79,15.333
40736,221.842,47.173,15.195
40751,221.94,47.573,15.176
40793,222.086,47.999,15.319
40826,222.123,48.367,15.232
40860,222.3,48.808,15.257
40894,222.384,49.212,15.258
40944,222.3,49.435,15.289
40977,222.16,49.293,15.268
41012,221.696,48.056,15.103
41045,221.487,46.837,15.172
41079,221.476,46.243,15.202
41127,221.435,45.876,15.244
41160,221.413,45.633,15.289
41194,221.335,45.44,15.292
41228,221.423,45.417,15.315
41279,221.322,45.338,15.301
41313,221.28,45.313,15.226
41346,221.406,45.383,15.265
41392,221.466,45.486,15.226
41428,221.515,45.704,15.218
41462,221.58,46.023,15.278
41495,221.614,46.31,15.234
41529,221.665,46.671,15.203
41562,221.659,46.942,15.151
41604,221.717,47.257,15.216
41647,221.785,47.617,15.203
41681,221.902,48.054,15.257
41731,221.99,48.453,15.215
41776,222.137,48.831,15.155
41794,222.239,49.265,15.15
41829,222.344,49.774,15.211
41863,222.23,50.042,15.194
41899,222.033,49.621,15.167
41948,221.697,48.359,15.252
41981,221.504,47.316,15.295
42015,221.467,46.787,15.297
42047,221.439,46.542,15.279
42098,221.402,46.352,15.276
42130,221.46,46.285,15.19
42164,221.412,46.311,15.193
42199,221.403,46.27,15.245
42245,221.411,46.32,15.24
42282,221.526,46.475,15.099
42315,221.582,46.679,15.089
42351,221.617,46.925,15.178
42387,221.662,47.219,15.144
42433,221.786,47.626,15.144
42466,221.876,48.013,15.054
42499,222.036,48.519,15.204
42533,222.041,48.836,15.155
42566,222.268,49.345,15.145
42616,222.336,49.758,15.06
42650,222.379,50.088,15.044
42683,222.38,50.458,15.001
42716,222.413,50.882,15.047
42766,222.473,51.341,14.936
42802,222.514,51.69,14.983
42833,222.269,51.471,14.978
42868,221.981,50.27,14.935
42917,221.818,48.896,14.986
42950,221.67,47.996,15.146
42984,221.644,47.569,15.156
43017,221.643,47.176,15.135
43067,221.564,46.921,15.148
43100,221.617,46.855,15.26
43134,221.618,46.842,15.242
43167,221.597,46.811,15.211
43208,221.607,46.86,15.167
43250,221.623,46.865,15.285
43293,221.644,47.027,15.257
43334,221.616,47.265,15.203
43354,221.685,47.522,15.216
43387,221.82,47.836,15.201
43435,221.821,48.104,15.168
43468,221.787,48.365,15.12
43502,221.888,48.699,15.125
43553,221.926,48.952,14.997
43585,222.044,49.305,15.059
43618,222.126,49.589,15.195
43651,222.173,49.914,15.218
43686,222.12,50.231,15.171
43727,222.132,50.536,15.109
43769,222.238,50.983,15.013
43824,222.232,51.285,14.987
43844,221.98,50.753,15.038
43884,221.625,49.148,15.054
43918,221.342,47.644,15.109
43951,221.215,46.692,15.1
43985,221.185,46.136,15.227
44019,221.065,45.685,15.2
44070,221.064,45.301,15.203
44103,221.013,45.15,15.177
44136,221.049,45.107,15.174
44178,221.074,45.146,15.161
44220,221.087,45.191,15.201
44254,221.089,45.347,15.188
44286,221.155,45.495,15.209
44330,221.321,45.894,15.289
44378,221.418,46.327,15.347
44394,221.562,46.782,15.348
44438,221.687,47.296,15.206
44472,221.801,47.726,15.231
44505,221.833,48.107,15.176
44554,222.011,48.645,15.234
44588,222.076,49.189,15.109
44621,222.191,49.719,15.158
44655,222.281,50.168,15.18
44695,222.245,50.506,15.083
44738,221.932,49.694,15.225
44771,221.605,48.194,15.207
44819,221.419,47.231,15.236
44850,221.365,46.81,15.231
44879,221.448,46.76,15.079
44919,221.388,46.696,15.056
44954,221.612,46.879,15.291
44988,221.518,46.978,15.274
45029,221.388,46.91,15.129
45070,221.375,46.909,15.132
45104,221.451,47.002,15.211
45138,221.532,47.201,15.2
45188,221.589,47.519,15.23
45221,221.701,47.925,15.18
45255,221.82,48.407,15.225
45288,221.94,48.848,15.193
45339,222.053,49.269,15.232
45370,221.983,49.568,15.207
45413,222.068,49.973,15.227
45440,222.151,50.413,15.231
45473,222.162,50.855,15.247
45508,222.27,51.304,15.233
45547,222.409,51.835,15.191
45590,222.504,52.275,15.236
45624,222.151,52.013,15.165
45674,221.741,50.74,15.137
45708,221.546,49.402,15.296
45742,221.621,48.697,15.337
45775,221.596,48.446,15.285
45827,221.654,48.39,15.303
45887,221.737,48.49,15.262
45905,221.76,48.636,15.242
45934,221.747,48.647,15.179
45981,221.738,48.659,15.199
46016,221.727,48.721,15.182
46056,221.77,48.864,15.175
46082,221.831,49.131,15.323
46130,221.89,49.45,15.26
46163,221.963,49.82,15.318
46178,221.927,50.118,15.255
46224,221.987,50.546,15.135
46259,222.03,50.894,15.106
46291,222.062,51.154,15.138
46328,222.22,51.577,15.165
46377,222.27,51.993,15.12
46408,222.354,52.375,15.092
46442,222.382,52.763,15.138
46491,222.097,52.315,15.143
46525,221.692,50.969,15.101
46558,221.566,49.779,15.152
46592,221.615,49.35,15.204
46643,221.644,49.208,15.203
46676,221.747,49.199,15.144
46709,221.76,49.299,15.158
46743,221.827,49.44,15.135
46783,221.832,49.469,15.118
46826,221.83,49.459,15.252
46880,221.867,49.551,15.219
46908,221.927,49.759,15.177
46942,221.977,50.043,15.211
46987,222.065,50.4,15.083
47004,222.117,50.753,15.062
47042,222.121,51.085,15.116
47076,222.079,51.386,15.093
47110,222.135,51.694,15.07
47151,222.236,52.035,15.077
47194,222.401,52.512,15.174
47227,222.492,52.896,15.196
47262,222.549,53.241,15.043
47311,222.129,52.539,15.011
47344,221.771,51.111,15.133
47379,221.717,49.98,15.157
47408,221.687,49.42,15.171
47461,221.696,49.25,15.192
47494,221.739,49.212,15.228
47528,221.882,49.358,15.263
47562,221.787,49.305,15.151
47595,221.761,49.33,15.115
47636,221.809,49.33,15.161
47679,221.891,49.47,15.183
47712,221.897,49.597,15.179
47746,221.94,49.866,15.192
47796,222.018,50.232,15.124
47829,222.009,50.593,15.138
47862,222.046,51.054,15.044
47903,222.139,51.406,15.06
47943,222.26,51.727,15.167
47980,222.347,52.072,15.123
48019,222.423,52.55,15.093
48061,222.512,52.901,15.073
48079,222.528,53.198,14.996
48121,222.628,53.589,14.964
48163,222.581,53.728,15.059
48197,222.083,52.564,15.079
48230,221.746,50.97,15.043
48266,221.758,49.951,15.129
48313,221.738,49.512,15.229
48351,221.723,49.358,15.193
48387,221.775,49.318,15.13
48431,221.714,49.305,15.033
48463,221.815,49.363,15.186
48496,221.809,49.344,15.242
48540,221.795,49.283,15.065
48584,221.689,49.271,15.041
48605,221.715,49.477,15.127
48644,221.806,49.794,15.131
48680,221.803,50.095,15.078
48731,221.956,50.514,15.111
48749,222.056,50.918,15.094
48797,222.121,51.26,15.116
48831,222.108,51.604,14.977
48864,222.208,51.961,15.034
48919,222.19,52.268,15.036
48948,222.327,52.683,15.058
48982,222.471,53.144,15.128
49015,222.55,53.562,15.123
49047,222.558,53.917,14.996
49100,222.085,53.02,15.007
49133,221.732,51.291,15.12
49166,221.534,49.942,15.136
49199,221.552,49.473,15.139
49241,221.535,49.252,15.15
49283,221.531,49.063,15.132
49316,221.539,49.087,15.188
49358,221.558,49.152,14.941
49400,221.548,49.163,14.953
49433,221.506,49.081,15.032
49466,221.618,49.21,15.059
49499,221.708,49.445,15.101
49533,221.795,49.742,15.112
49578,221.78,50.006,15.122
49615,221.811,50.333,15.152
49665,221.739,50.663,15.012
49698,221.794,51.027,15.024
49731,221.883,51.384,15.06
49763,222.101,51.864,15.054
49797,222.249,52.318,15.078
49831,222.323,52.732,15.004
49864,222.345,53.086,15.012
49914,222.487,53.518,15.005
49950,222.433,53.784,14.982
49984,221.971,52.788,15.052
50019,221.529,51.072,15.045
50068,221.401,49.805,15.108
50101,221.392,49.312,15.149
50133,221.406,49.168,15.179
50168,221.552,49.163,15.208
50201,221.551,49.191,15.259
50251,221.49,49.191,15.179
50285,221.496,49.175,15.156
50319,221.417,49.031,15.024
50352,221.527,49.115,15.071
50402,221.544,49.376,15.186
50435,221.553,49.64,15.232
50468,221.611,49.928,15.133
50501,221.649,50.29,15.184
50536,221.75,50.731,15.136
50586,221.824,51.059,15.089
50629,221.901,51.401,15.18
50660,221.816,51.647,15.058
50684,221.935,52.006,15.101
50735,222.056,52.407,15.079
50768,222.166,52.804,15.182
50802,222.081,52.958,15.168
50862,221.654,52.133,15.038
50873,221.24,50.458,15.11
50920,221.072,49.239,15.051
50960,221.159,48.785,15.162
51002,221.25,48.607,15.213
51036,221.25,48.6,15.241
51069,221.325,48.698,15.252
51104,221.314,48.787,15.187
51150,221.262,48.696,15.157
51188,221.14,48.603,15.147
51220,221.182,48.707,15.152
51253,221.214,48.905,15.149
51288,221.252,49.143,15.136
51322,221.283,49.456,15.127
51356,221.417,49.871,15.241
51405,221.494,50.258,15.184
51438,221.61,50.601,15.243
51471,221.686,50.952,15.291
51505,221.668,51.288,15.154
51554,221.79,51.682,15.161
51587,221.881,52.067,15.125
51622,221.694,51.927,15.078
51656,221.262,50.59,15.048
51705,221.01,48.88,15.076
51739,220.881,47.85,15.168
51772,220.812,47.476,15.196
51807,220.831,47.349,15.259
51849,220.836,47.336,15.257
51888,220.846,47.432,15.188
51922,220.808,47.454,15.134
51966,220.791,47.442,15.187
51989,220.832,47.438,15.219
52039,220.892,47.493,15.124
52072,220.95,47.742,15.144
52106,221.071,48.199,15.136
52141,221.185,48.613,15.086
52187,221.208,48.915,15.214
52222,221.312,49.297,15.203
52255,221.401,49.689,15.129
52290,221.527,50.107,15.106
52324,221.559,50.458,15.252
52373,221.649,50.858,15.207
52406,221.714,51.251,15.173
52439,221.383,50.79,15.15
52473,221.109,49.096,15.139
52522,220.822,47.465,15.227
52557,220.606,46.591,15.257
52589,220.476,46.158,15.241
52623,220.486,45.961,15.281
52656,220.467,45.834,15.317
52698,220.504,45.829,15.195
52740,220.503,45.791,15.264
52773,220.462,45.661,15.108
52825,220.524,45.671,15.136
52848,220.605,45.865,15.322
52890,220.646,46.139,15.27
52925,220.753,46.428,15.267
52974,220.897,46.806,15.319
53026,220.988,47.115,15.225
53050,221.117,47.482,15.248
53081,221.136,47.809,15.274
53117,221.214,48.141,15.25
53161,221.314,48.483,15.185
53191,221.421,48.908,15.177
53224,221.346,49.182,15.089
53280,221.146,48.596,15.125
53312,220.556,46.724,15.177
53333,220.268,45.187,15.25
53375,220.217,44.479,15.238
53408,220.173,44.101,15.229
53442,220.139,43.822,15.179
53477,220.14,43.713,15.239
53527,220.218,43.716,15.181
53560,220.213,43.73,15.105
53594,220.148,43.597,15.315
53643,220.134,43.606,15.269
53676,220.182,43.815,15.149
53717,220.323,44.133,15.237
53759,220.374,44.459,15.22
53776,220.379,44.784,15.229
53826,220.494,45.182,15.206
53863,220.558,45.538,15.205
53893,220.537,45.851,15.069
53925,220.693,46.204,15.086
53976,220.744,46.525,15.083
54015,220.931,46.93,15.067
54035,221.041,47.399,15.088
54078,220.853,47.332,15.05
54111,220.357,46.018,15.068
54152,220.008,44.379,15.071
54193,219.948,43.362,15.104
54226,219.979,42.936,15.145
54261,219.963,42.68,15.192
54303,219.797,42.432,15.147
54345,219.793,42.363,15.131
54379,219.754,42.305,15.142
54412,219.794,42.279,15.138
54454,219.772,42.215,15.122
54496,219.749,42.215,15.061
54529,219.765,42.385,15.006
54563,219.788,42.618,15.093
54596,219.871,42.908,15.088
54646,219.976,43.251,15.061
54679,220.018,43.555,15.09
54713,219.986,43.785,15.155
54755,220.044,44.094,15.079
54795,220.181,44.494,15.072
54828,220.258,44.881,15.133
54863,220.325,45.304,15.224
54896,220.363,45.604,15.161
54929,220.052,44.819,15.18
54979,219.662,43.114,15.118
55033,219.308,41.795,15.021
55047,219.191,41.125,15.017
55080,219.19,40.792,15.153
55115,219.217,40.615,15.212
55164,219.169,40.447,15.101
55198,219.198,40.54,15.14
55231,219.103,40.533,15.001
55274,219.096,40.526,15.024
55314,219.095,40.667,15.108
55348,219.149,40.841,15.109
55380,219.24,41.142,15.079
55415,219.364,41.544,15.043
55464,219.576,41.951,15.011
55498,219.667,42.335,15.025
55532,219.773,42.762,15.162
55565,219.842,43.2,15.065
55598,219.965,43.692,15.099
55649,220.05,44.17,15.098
55682,220.132,44.639,15.013
55715,220.12,44.674,15.052
55749,219.724,43.407,15.012
55800,219.367,41.853,14.978
55846,219.211,40.955,15.102
55873,219.14,40.536,15.133
55898,219.137,40.257,14.973
55940,219.115,40.114,15.025
55980,219.072,40.06,15.047
56015,219.056,40.065,15.07
56055,219.042,40.079,15.057
56091,218.969,40.072,14.955
56130,218.942,40.061,15.045
56165,218.974,40.28,14.962
56199,219.181,40.73,14.98
56250,219.262,41.077,14.96
56296,219.307,41.338,15.016
56316,219.43,41.706,15.044
56350,219.555,42.005,15.048
56384,219.735,42.44,15.122
56418,219.815,42.931,15.002
56467,219.774,43.122,14.955
56501,219.355,42.067,14.966
56533,218.834,40.394,14.902
56575,218.612,39.195,14.938
56618,218.537,38.572,14.878
56651,218.465,38.238,14.922
56685,218.565,38.089,14.947
56719,218.539,38.027,14.886
56759,218.536,38.135,14.868
56803,218.575,38.16,14.898
56842,218.524,38.217,14.832
56885,218.497,38.361,14.894
56918,218.658,38.712,14.937
56952,218.696,39.036,14.928
56985,218.797,39.476,14.918
57018,218.902,39.815,14.952
57060,219.035,40.237,15.034
57087,219.193,40.763,15.04
57135,219.307,41.176,15.061
57170,219.535,41.667,15.119
57203,219.68,42.145,15.12
57236,219.59,42.167,15.051
57286,218.95,40.816,14.876
57320,218.631,39.197,15.095
57352,218.483,38.037,15.172
57388,218.356,37.37,15.083
57437,218.266,36.976,15.067
57470,218.195,36.589,14.984
57504,218.207,36.543,14.998
57536,218.258,36.616,14.962
57586,218.179,36.649,14.977
57619,218.318,36.748,14.958
57653,218.263,36.839,14.898
57686,218.368,37.097,15.023
57736,218.468,37.449,14.962
57769,218.54,37.864,14.876
57806,218.666,38.299,14.892
57845,218.688,38.677,14.909
57875,218.793,39.075,14.896
57920,218.956,39.504,14.974
57954,219.068,39.92,14.954
57988,219.189,40.31,14.968
58021,219.388,40.816,15.045
58070,219.542,41.425,15.133
58121,219.37,41.495,15.085
58144,218.856,40.256,14.916
58191,218.535,38.584,14.907
58227,218.471,37.479,14.916
58259,218.387,36.856,14.902
58310,218.238,36.286,15.019
58344,218.129,35.877,14.975
58376,218.096,35.7,14.853
58412,218.05,35.683,14.878
58429,217.988,35.616,14.793
58473,217.986,35.628,14.767
58505,217.982,35.688,14.583
58546,217.931,35.806,14.614
58589,218.034,36.091,14.763
58623,218.12,36.399,14.733
58657,218.315,36.734,14.761
58697,218.376,37.098,14.721
58739,218.418,37.497,14.716
58772,218.534,37.94,14.697
58804,218.648,38.386,14.824
58847,218.757,38.849,14.845
58883,218.766,39.25,14.766
58920,218.984,39.793,14.842
58953,219.179,40.288,14.884
58987,219.331,40.813,14.909
59036,219.383,41.397,14.979
59071,219.192,41.198,14.951
59108,218.803,39.921,14.797
59138,218.642,38.693,14.822
59188,218.569,38.036,14.906
59223,218.535,37.654,14.935
59258,218.429,37.297,14.851
59290,218.417,37.152,14.809
59324,218.472,37.197,14.761
59374,218.413,37.247,14.727
59417,218.401,37.31,14.657
59434,218.49,37.479,14.625
59475,218.535,37.736,14.666
59508,218.559,38.038,14.665
59558,218.613,38.408,14.707
59592,218.73,38.841,14.705
59626,218.819,39.227,14.807
59658,218.885,39.595,14.873
59699,218.916,40.037,14.78
59743,219.01,40.505,14.668
59776,219.11,40.848,14.654
59828,219.223,41.294,14.615
59858,219.4,41.8,14.707
59891,219.579,42.28,14.739
59925,219.75,42.783,14.764
59958,219.644,43.022,14.727
59993,219.441,42.546,14.721
60042,219.024,41.342,14.684
60077,218.865,40.549,14.717
60130,218.903,40.156,14.718
60143,218.846,39.979,14.673
60192,218.853,39.879,14.64
60227,218.885,39.833,14.714
60262,218.903,39.979,14.687
60293,218.919,40.051,14.748
60344,218.915,40.113,14.708
60377,218.978,40.265,14.629
60411,219.124,40.534,14.651
60457,219.195,40.85,14.712
60493,219.291,41.209,14.711
60528,219.28,41.507,14.681
60562,219.392,41.904,14.686
60595,219.492,42.306,14.735
60627,219.606,42.715,14.682
60677,219.632,43.047,14.679
60712,219.782,43.461,14.72
60745,219.851,43.856,14.722
60779,219.929,44.27,14.718
60828,219.878,44.587,14.731
60852,219.639,44.344,14.728
60894,219.383,43.363,14.578
60929,219.286,42.362,14.654
60962,219.247,41.837,14.811
61003,219.221,41.541,14.792
61045,219.189,41.29,14.74
61078,219.216,41.231,14.698
61124,219.28,41.272,14.756
61162,219.208,41.269,14.731
61196,219.137,41.265,14.772
61231,219.15,41.358,14.684
61262,219.279,41.564,14.732
61313,219.354,41.781,14.747
61346,219.469,42.088,14.76
61380,219.442,42.342,14.628
61413,219.526,42.595,14.748
61446,219.582,42.921,14.725
61491,219.657,43.337,14.802
61529,219.707,43.668,14.797
61563,219.758,44.081,14.776
61596,219.823,44.441,14.736
61646,219.867,44.855,14.746
61678,219.962,45.273,14.691
61711,220.031,45.596,14.711
61745,219.667,45.004,14.687
61793,219.425,43.781,14.708
61819,219.34,42.788,14.727
61855,219.338,42.262,14.849
61897,219.294,41.898,14.891
61931,219.214,41.498,14.645
61972,219.163,41.302,14.58
62012,219.097,41.213,14.589
62047,219.137,41.235,14.619
62082,219.087,41.226,14.596
62116,219.008,41.198,14.542
62170,218.982,41.236,14.629
62196,219.058,41.405,14.693
62230,219.068,41.6,14.693
62282,219.149,41.882,14.666
62300,219.217,42.155,14.602
62348,219.263,42.436,14.614
62380,219.301,42.774,14.616
62416,219.322,43.145,14.516
62450,219.399,43.484,14.601
62499,219.482,43.855,14.61
62531,219.61,44.193,14.68
62565,219.711,44.581,14.724
62599,219.728,45.0,14.591
62640,219.572,45.01,14.696
62685,219.319,44.16,14.636
62716,219.216,43.068,14.704
62767,219.164,42.317,14.761
62799,219.017,41.803,14.716
62826,218.898,41.449,14.631
62866,218.859,41.225,14.61
62900,218.833,41.016,14.733
62934,218.843,41.036,14.725
62983,218.958,41.117,14.58
63017,218.983,41.178,14.505
63066,218.986,41.253,14.629
63091,219.035,41.404,14.645
63132,219.109,41.651,14.514
63183,219.197,41.959,14.498
63199,219.236,42.306,14.623
63231,219.281,42.62,14.611
63266,219.245,42.872,14.51
63315,219.299,43.209,14.55
63348,219.477,43.61,14.57
63383,219.557,43.994,14.555
63418,219.688,44.409,14.593
63459,219.682,44.681,14.626
63501,219.691,45.053,14.633
63535,219.832,45.453,14.607
63569,219.9,45.76,14.649
63618,219.607,45.252,14.618
63650,219.278,44.099,14.581
63684,219.108,43.114,14.57
63719,219.166,42.642,14.645
63752,219.067,42.301,14.669
63806,218.91,41.989,14.59
63842,218.954,41.877,14.588
63869,219.014,41.845,14.654
63904,219.032,41.884,14.71
63944,218.994,41.885,14.693
63987,219.008,41.922,14.707
64019,219.088,42.1,14.617
64054,219.12,42.336,14.565
64098,219.153,42.613,14.617
64135,219.223,42.931,14.61
64183,219.245,43.259,14.586
64235,219.298,43.566,14.635
64253,219.372,43.887,14.593
64285,219.427,44.203,14.637
64334,219.492,44.612,14.653
64370,219.59,44.964,14.632
64404,219.702,45.341,14.597
64441,219.775,45.689,14.544
64472,219.882,46.044,14.564
64525,219.967,46.396,14.617
64538,219.805,46.355,14.56
64571,219.4,45.418,14.578
64620,219.064,44.297,14.55
64655,219.121,43.574,14.608
64688,219.024,43.115,14.685
64722,219.018,42.892,14.718
64763,219.055,42.754,14.617
64813,219.093,42.724,14.723
64845,219.048,42.674,14.657
64885,219.054,42.645,14.7
64919,219.151,42.666,14.741
64951,219.153,42.705,14.783
64985,219.191,42.855,14.766
65019,219.192,43.093,14.769
65070,219.315,43.463,14.753
65103,219.288,43.714,14.762
65148,219.339,43.977,14.689
65188,219.487,44.364,14.783
65227,219.443,44.676,14.69
65247,219.513,44.983,14.654
65287,219.624,45.348,14.691
65321,219.82,45.774,14.71
65356,219.957,46.125,14.708
65406,219.959,46.399,14.726
65439,219.592,45.879,14.694
65473,219.255,44.666,14.717
65505,219.131,43.676,14.745
65539,219.128,43.193,14.719
65589,219.14,42.941,14.814
65622,219.153,42.833,14.854
65656,219.053,42.757,14.65
65690,219.026,42.76,14.649
65740,219.097,42.803,14.735
65773,219.104,42.787,14.753
65815,219.206,42.938,14.834
65856,219.148,43.022,14.777
65889,219.28,43.396,14.788
65924,219.327,43.7,14.808
65956,219.312,43.955,14.77
65989,219.354,44.28,14.739
66023,219.469,44.613,14.824
66073,219.631,45.006,14.825
66107,219.63,45.289,14.681
66140,219.734,45.647,14.702
66187,219.877,45.976,14.967
66243,219.991,46.344,14.926
66260,220.106,46.755,14.879
66290,220.066,46.993,14.824
66332,219.714,46.345,14.735
66373,219.275,44.894,14.798
66408,219.11,43.633,14.726
66441,218.986,42.826,14.75
66477,218.951,42.4,14.812
66509,218.911,42.083,14.817
66549,218.925,41.838,14.744
66592,218.923,41.828,14.739
66626,218.899,41.786,14.635
66660,218.908,41.722,14.677
66705,218.951,41.748,14.645
66741,218.955,41.841,14.625
66776,218.993,42.009,14.691
66820,219.045,42.235,14.761
66858,218.99,42.456,14.768
66891,219.031,42.715,14.721
66924,219.126,43.018,14.649
66959,219.197,43.37,14.653
66993,219.248,43.663,14.702
67033,219.313,44.01,14.728
67076,219.425,44.409,14.789
67109,219.536,44.763,14.826
67143,219.602,45.1,14.719
67192,219.771,45.579,14.757
67226,219.701,45.66,14.745
67255,219.254,44.581,14.748
67294,218.916,43.017,14.646
67328,218.858,41.968,14.708
67377,218.724,41.327,14.728
67410,218.593,40.938,14.722
67445,218.652,40.734,14.793
67478,218.673,40.631,14.798
67512,218.621,40.516,14.825
67562,218.582,40.439,14.797
67594,218.56,40.477,14.652
67629,218.554,40.502,14.63
67662,218.669,40.643,14.763
67712,218.615,40.815,14.664
67761,218.695,41.044,14.601
67786,218.871,41.41,14.642
67822,218.944,41.671,14.772
67860,218.911,41.906,14.759
67893,219.051,42.361,14.656
67927,219.136,42.717,14.64
67961,219.283,43.187,14.634
68011,219.358,43.582,14.661
68045,219.405,43.887,14.716
68078,219.478,44.301,14.705
68112,219.617,44.757,14.705
68161,219.536,44.843,14.753
68195,219.129,43.849,14.744
68228,218.934,42.446,14.802
68282,218.787,41.543,14.863
68312,218.785,41.159,14.82
68345,218.7,40.873,14.695
68379,218.674,40.682,14.745
68412,218.648,40.604,14.704
68446,218.629,40.578,14.731
68497,218.558,40.546,14.786
68530,218.539,40.526,14.774
68564,218.555,40.597,14.657
68597,218.618,40.757,14.663
68632,218.65,40.939,14.725
68672,218.733,41.212,14.73
68713,218.734,41.526,14.615
68747,218.807,41.807,14.656
68800,218.92,42.106,14.718
68821,218.978,42.426,14.672
68864,219.006,42.79,14.691
68897,219.062,43.163,14.709
68930,219.153,43.46,14.683
68980,219.216,43.857,14.641
69013,219.259,44.208,14.763
69047,219.337,44.527,14.755
69081,218.989,43.89,14.703
69115,218.741,42.555,14.735
69164,218.603,41.451,14.679
69197,218.442,40.879,14.637
69231,218.474,40.709,14.674
69283,218.473,40.551,14.715
69311,218.512,40.486,14.72
69341,218.471,40.492,14.648
69380,218.294,40.303,14.685
69414,218.275,40.274,14.638
69448,218.324,40.35,14.559
69499,218.364,40.477,14.577
69532,218.458,40.714,14.55
69565,218.536,40.976,14.608
69599,218.678,41.291,14.594
69640,218.711,41.584,14.61
69683,218.762,41.944,14.66
69716,218.833,42.249,14.662
69749,218.857,42.554,14.598
69787,219.036,42.965,14.668
69825,219.093,43.318,14.564
69868,219.185,43.694,14.591
69902,219.264,44.135,14.677
69934,219.098,44.068,14.681
69975,218.643,42.831,14.544
70018,218.349,41.281,14.545
70052,218.19,40.311,14.63
70102,218.143,39.834,14.597
70119,218.162,39.464,14.717
70168,218.122,39.216,14.688
70202,217.952,39.039,14.48
70235,217.961,39.009,14.47
70285,217.962,38.951,14.572
70326,217.93,38.916,14.499
70364,217.924,39.082,14.495
70392,217.969,39.286,14.524
70435,218.079,39.514,14.619
70467,218.112,39.801,14.564
70500,218.179,40.136,14.584
70537,218.367,40.519,14.621
70568,218.545,40.907,14.592
70618,218.591,41.215,14.594
70651,218.727,41.555,14.683
70685,218.851,41.934,14.68
70719,218.877,42.231,14.699
70767,218.821,42.492,14.677
70810,218.891,42.839,14.725
70831,218.844,43.051,14.701
70870,218.513,42.123,14.648
70906,218.162,40.526,14.652
70940,217.988,39.291,14.614
70991,217.977,38.645,14.715
71024,217.953,38.26,14.623
71056,217.905,37.983,14.603
71108,217.77,37.733,14.59
71139,217.761,37.764,14.596
71172,217.769,37.786,14.567
71205,217.74,37.771,14.544
71243,217.755,37.778,14.627
71273,217.774,37.918,14.615
71322,217.921,38.269,14.655
71378,218.0,38.563,14.62
71410,218.008,38.859,14.632
71456,218.063,39.153,14.639
71486,218.162,39.538,14.752
71516,218.244,39.89,14.746
71546,218.328,40.266,14.67
71593,218.423,40.651,14.661
71626,218.508,40.988,14.666
71658,218.641,41.383,14.671
71687,218.809,41.869,14.762
71720,218.873,42.25,14.721
71757,218.849,42.52,14.677
71813,218.416,41.611,14.618
71838,217.947,39.876,14.575
71890,217.745,38.567,14.59
71922,217.729,37.93,14.604
71955,217.671,37.559,14.622
71989,217.585,37.231,14.612
72022,217.599,37.153,14.639
72055,217.625,37.138,14.471
72106,217.632,37.139,14.481
72140,217.731,37.228,14.405
72172,217.737,37.317,14.476
72206,217.733,37.52,14.504
72255,217.779,37.829,14.535
72290,217.916,38.179,14.557
72323,218.036,38.557,14.581
72364,218.054,38.927,14.563
72406,218.098,39.289,14.485
72451,218.12,39.649,14.55
72468,218.261,40.06,14.515
72505,218.375,40.515,14.604
72541,218.503,40.903,14.621
72582,218.581,41.26,14.475
72625,218.724,41.675,14.514
72658,218.866,42.165,14.605
72692,219.003,42.577,14.589
72725,218.714,42.074,14.498
72775,218.251,40.563,14.515
72818,217.927,39.179,14.592
72858,217.923,38.532,14.577
72892,217.962,38.255,14.603
72925,217.922,38.07,14.561
72958,217.927,37.936,14.552
72991,217.912,37.986,14.515
73025,217.906,38.022,14.51
73074,217.834,37.956,14.458
73108,217.839,37.91,14.488
73142,217.921,38.13,14.535
73176,217.952,38.375,14.432
73210,217.993,38.662,14.402
73250,218.112,39.055,14.417
73293,218.187,39.375,14.365
73326,218.176,39.697,14.495
73379,218.24,40.024,14.466
73408,218.272,40.316,14.452
73443,218.488,40.714,14.47
73492,218.538,41.023,14.51
73509,218.631,41.389,14.609
73560,218.714,41.794,14.548
73593,218.736,42.139,14.53
73628,218.529,41.766,14.583
73660,218.114,40.416,14.514
73694,217.931,39.118,14.478
73744,217.885,38.461,14.473
73777,217.882,38.254,14.605
73814,217.807,38.11,14.543
73859,217.82,38.125,14.41
73894,217.811,38.203,14.378
73927,217.784,38.156,14.442
73959,217.765,38.145,14.39
74003,217.828,38.25,14.455
74042,217.881,38.464,14.495
74075,217.915,38.687,14.485
74108,218.005,39.022,14.525
74143,218.03,39.363,14.515
74192,218.183,39.756,14.543
74226,218.268,40.137,14.435
74259,218.378,40.489,14.515
74293,218.481,40.864,14.511
74326,218.528,41.177,14.475
74388,218.669,41.616,14.6
74411,218.81,42.069,14.56
74446,218.901,42.538,14.499
74479,218.97,42.851,14.56
74513,218.591,41.831,14.558
74563,218.0,40.025,14.515
74596,217.779,38.683,14.548
74629,217.698,38.061,14.513
74663,217.729,37.739,14.497
74713,217.705,37.49,14.498
74746,217.771,37.421,14.491
74779,217.695,37.416,14.479
74814,217.676,37.469,14.399
74861,217.582,37.437,14.371
74897,217.614,37.503,14.489
74937,217.676,37.735,14.471
74965,217.712,38.062,14.486
75004,217.863,38.453,14.493
75050,218.01,38.853,14.547
75077,217.992,39.173,14.527
75111,218.189,39.587,14.481
75160,218.29,39.985,14.519
75194,218.39,40.417,14.47
75229,218.431,40.772,14.456
75265,218.56,41.123,14.504
75296,218.735,41.556,14.534
75346,218.941,42.191,14.535
75380,218.91,42.547,14.478
75410,218.534,41.757,14.488
75449,218.016,39.959,14.408
75481,217.782,38.426,14.507
75532,217.691,37.655,14.487
75565,217.541,37.224,14.526
75599,217.517,36.939,14.514
75630,217.462,36.741,14.526
75681,217.488,36.795,14.47
75717,217.545,36.901,14.448
75751,217.413,36.869,14.39
75792,217.406,36.943,14.35
75830,217.467,37.129,14.4
75863,217.628,37.491,14.336
75897,217.674,37.831,14.359
75931,217.744,38.181,14.42
75965,217.827,38.577,14.461
76015,217.887,38.929,14.463
76049,217.958,39.304,14.497
76095,218.061,39.752,14.501
76132,218.193,40.151,14.516
76165,218.281,40.505,14.532
76199,218.412,40.946,14.516
76233,218.678,41.451,14.492
76267,218.817,41.949,14.479
76300,218.621,41.857,14.463
76351,218.112,40.401,14.457
76382,217.737,38.684,14.545
76420,217.569,37.601,14.501
76449,217.548,37.175,14.491
76500,217.53,36.924,14.528
76533,217.483,36.709,14.277
76568,217.544,36.752,14.369
76612,217.544,36.885,14.412
76649,217.632,36.972,14.416
76683,217.644,37.0,14.448
76716,217.568,37.139,14.382
76750,217.657,37.487,14.329
76790,217.706,37.834,14.308
76825,217.808,38.207,14.376
76866,217.889,38.614,14.383
76899,217.981,38.953,14.395
76934,218.087,39.35,14.472
76985,218.197,39.76,14.415
77018,218.32,40.169,14.408
77050,218.478,40.639,14.46
77084,218.65,41.062,14.55
77126,218.824,41.546,14.697
77167,218.918,41.999,14.691
77201,218.817,42.152,14.615
77235,218.381,41.057,14.566
77268,217.889,39.367,14.599
77318,217.792,38.289,14.542
77351,217.868,37.873,14.596
77385,217.851,37.725,14.633
77432,217.777,37.602,14.569
77481,217.809,37.679,14.522
77509,217.821,37.694,14.505
77560,217.817,37.712,14.46
77594,217.809,37.751,14.385
77629,217.884,37.909,14.409
77675,217.975,38.156,14.529
77702,218.011,38.465,14.525
77725,217.994,38.732,14.515
77768,218.062,39.142,14.496
77796,218.168,39.535,14.455
77834,218.296,39.9,14.478
77868,218.346,40.214,14.463
77903,218.471,40.559,14.508
77953,218.665,40.988,14.581
77986,218.687,41.307,14.544
78019,218.867,41.692,14.607
78053,218.881,41.948,14.565
78086,218.448,41.11,14.558
78135,218.0,39.515,14.485
78169,217.83,38.411,14.546
78203,217.833,37.955,14.562
78236,217.957,37.939,14.438
78288,217.884,37.869,14.458
78321,217.965,37.897,14.399
78354,217.947,37.972,14.362
78387,217.951,38.001,14.378
78437,217.926,37.976,14.36
78464,217.866,38.051,14.375
78505,217.972,38.343,14.397
78540,218.093,38.727,14.446
78573,218.101,39.06,14.423
78623,218.125,39.405,14.485
78656,218.282,39.813,14.525
78703,218.389,40.167,14.481
78730,218.521,40.55,14.505
78773,218.625,40.994,14.488
78797,218.713,41.363,14.492
78838,218.908,41.83,14.586
78871,218.921,42.206,14.618
78905,218.974,42.52,14.564
78955,218.652,41.951,14.519
78988,218.049,40.189,14.494
79022,217.776,38.544,14.452
79056,217.725,37.754,14.454
79107,217.702,37.328,14.493
79140,217.644,36.939,14.386
79174,217.609,36.724,14.381
79221,217.567,36.666,14.313
79241,217.536,36.705,14.343
79282,217.538,36.732,14.393
79325,217.528,36.772,14.424
79358,217.587,36.94,14.431
79393,217.663,37.245,14.435
79432,217.696,37.602,14.317
79496,217.759,37.988,14.347
79510,217.837,38.315,14.276
79546,217.886,38.672,14.303
79582,217.999,39.163,14.429
79624,218.216,39.66,14.441
79658,218.29,40.041,14.355
79693,218.413,40.449,14.424
79726,218.507,40.842,14.435
79783,218.64,41.299,14.437
79799,218.819,41.865,14.485
79840,218.786,42.124,14.511
79892,218.363,41.123,14.427
79917,217.733,39.132,14.461
79958,217.507,37.651,14.411
79992,217.45,36.968,14.445
80026,217.447,36.766,14.459
80067,217.355,36.503,14.436
80110,217.281,36.291,14.291
80143,217.347,36.385,14.27
80192,217.27,36.43,14.358
80217,217.387,36.544,14.351
80255,217.453,36.653,14.35
80292,217.508,36.91,14.363
80326,217.556,37.256,14.354
80376,217.653,37.659,14.404
80394,217.74,38.069,14.383
80442,217.838,38.488,14.389
80476,217.804,38.865,14.319
80516,217.898,39.276,14.276
80559,217.97,39.684,14.401
80593,218.141,40.132,14.368
80628,218.298,40.642,14.463
80661,218.452,41.073,14.494
80694,218.516,41.596,14.474
80744,218.676,42.065,14.523
80787,218.847,42.527,14.522
80818,218.463,41.748,14.51
80842,217.78,39.868,14.523
80893,217.486,38.354,14.546
80926,217.485,37.74,14.417
80959,217.438,37.442,14.44
80994,217.364,37.257,14.344
81027,217.366,37.22,14.381
81078,217.331,37.272,14.428
81110,217.376,37.318,14.45
81144,217.303,37.332,14.271
81195,217.299,37.422,14.282
81228,217.373,37.616,14.356
81261,217.501,37.972,14.427
81309,217.519,38.341,14.362
81336,217.611,38.75,14.385
81377,217.71,39.222,14.561
81411,217.744,39.561,14.532
81444,217.918,39.988,14.357
81477,218.027,40.404,14.375
81517,218.196,40.897,14.447
81554,218.346,41.331,14.456
81595,218.535,41.722,14.417
81629,218.554,42.118,14.438
81664,218.592,42.612,14.504
81699,218.393,42.53,14.429
81746,218.009,41.169,14.418
81783,217.494,39.453,14.461
81813,217.385,38.556,14.446
81855,217.35,38.234,14.449
81897,217.298,38.153,14.503
81930,217.294,38.19,14.503
81964,217.218,38.263,14.416
81999,217.239,38.322,14.379
82038,217.225,38.283,14.438
82082,217.292,38.332,14.441
82115,217.32,38.53,14.38
82148,217.347,38.793,14.378
82181,217.346,39.027,14.383
82232,217.441,39.408,14.373
82265,217.498,39.801,14.357
82297,217.646,40.209,14.349
82346,217.709,40.543,14.3
82380,217.906,40.963,14.336
82414,217.951,41.287,14.44
82447,218.161,41.781,14.454
82480,218.286,42.223,14.42
82527,218.043,42.182,14.373
82563,217.615,40.964,14.487
82597,217.08,39.314,14.461
82630,216.869,38.288,14.369
82680,216.872,37.99,14.35
82714,216.945,37.944,14.283
82748,216.958,38.05,14.296
82781,216.933,38.17,14.318
82831,216.933,38.27,14.317
82877,216.951,38.278,14.36
82892,217.005,38.34,14.407
82931,217.129,38.476,14.429
82966,217.212,38.821,14.421
83015,217.289,39.231,14.494
83050,217.39,39.645,14.47
83083,217.523,40.101,14.426
83117,217.632,40.509,14.342
83150,217.793,40.955,14.428
83191,217.902,41.308,14.441
83234,217.964,41.66,14.401
83266,218.099,42.087,14.405
83299,218.207,42.594,14.488
83349,218.182,42.793,14.466
83382,217.756,41.587,14.473
83417,217.118,39.482,14.394
83450,216.791,37.861,14.473
83501,216.676,37.114,14.464
83535,216.74,36.807,14.501
83605,216.611,36.414,14.314
83660,216.622,36.456,14.3
83692,216.462,36.419,14.27
83726,216.422,36.397,14.292
83755,216.405,36.422,14.293
83800,216.509,36.676,14.361
83842,216.613,37.032,14.295
83873,216.717,37.419,14.3
83914,216.872,37.878,14.316
83938,216.942,38.314,14.344
83984,217.116,38.766,14.362
84018,217.209,39.164,14.362
84052,217.38,39.59,14.318
84085,217.503,39.993,14.307
84119,217.581,40.413,14.501
84169,217.744,40.896,14.502
84203,217.919,41.349,14.471
84236,218.0,41.721,14.475
84271,217.432,40.653,14.406
84320,216.771,38.485,14.405
84353,216.494,36.834,14.394
84386,216.375,35.961,14.384
84420,216.265,35.532,14.318
84472,216.2,35.285,14.314
84504,216.144,35.076,14.218
84539,216.168,35.112,14.272
84583,216.051,35.075,14.159
84606,216.092,35.094,14.212
84644,216.139,35.149,14.295
84687,216.248,35.372,14.28
84722,216.36,35.681,14.233
84773,216.563,36.1,14.307
84788,216.547,36.485,14.214
84837,216.644,36.885,14.279
84870,216.832,37.394,14.386
84907,217.044,37.852,14.4
84948,217.135,38.271,14.496
84987,217.164,38.681,14.43
85019,217.382,39.107,14.449
85055,217.486,39.565,14.446
85088,217.561,39.998,14.435
85138,217.807,40.515,14.444
85172,217.875,40.947,14.376
85205,217.567,40.571,14.329
85238,216.925,38.702,14.372
85288,216.587,36.854,14.329
85322,216.415,35.834,14.449
85356,216.338,35.437,14.424
85388,216.298,35.181,14.253
85422,216.292,35.062,14.268
85469,216.319,35.085,14.308
85507,216.365,35.195,14.346
85541,216.351,35.201,14.288
85589,216.316,35.229,14.27
85618,216.434,35.48,14.253
85657,216.673,35.841,14.3
85690,216.748,36.234,14.266
85724,216.803,36.673,14.221
85767,216.974,37.126,14.29
85804,217.005,37.495,14.283
85837,217.216,37.908,14.384
85871,217.357,38.329,14.42
85905,217.37,38.703,14.328
85955,217.545,39.172,14.347
85989,217.714,39.63,14.472
86022,217.883,40.051,14.502
86056,218.066,40.547,14.423
86106,218.162,41.003,14.377
86138,218.298,41.495,14.52
86174,218.123,41.364,14.506
86206,217.427,39.636,14.452
86249,217.073,37.774,14.451
86290,216.984,36.759,14.467
86323,216.969,36.406,14.522
86357,216.924,36.237,14.418
86408,216.944,36.171,14.438
86440,217.058,36.311,14.439
86475,217.091,36.399,14.485
86521,217.028,36.353,14.458
86558,217.102,36.441,14.444
86575,217.241,36.675,14.494
86618,217.238,36.914,14.482
86658,217.284,37.276,14.356
86692,217.488,37.757,14.408
86724,217.622,38.211,14.442
86767,217.719,38.641,14.447
86808,217.897,39.088,14.54
86841,217.888,39.46,14.463
86875,218.05,39.974,14.509
86917,218.196,40.392,14.475
86958,218.37,40.824,14.536
86992,218.591,41.313,14.536
87025,218.809,41.842,14.632
87068,218.909,42.332,14.632
87110,218.926,42.726,14.606
87143,218.585,42.033,14.592
87176,217.99,40.126,14.495
87210,217.668,38.557,14.526
87260,217.565,37.908,14.595
87293,217.576,37.751,14.611
87326,217.638,37.661,14.536
87359,217.666,37.717,14.523
87394,217.649,37.756,14.48
87443,217.649,37.799,14.47
87477,217.65,37.843,14.499
87510,217.784,37.988,14.527
87555,217.768,38.243,14.547
87593,217.958,38.658,14.554
87624,218.082,39.013,14.572
87658,218.11,39.403,14.546
87694,218.241,39.797,14.551
87736,218.353,40.211,14.574
87771,218.574,40.713,14.638
87811,218.619,41.064,14.589
87844,218.875,41.519,14.686
87894,218.938,41.885,14.662
87929,219.133,42.448,14.66
87961,219.214,42.891,14.633
87994,219.38,43.337,14.646
88027,219.309,43.526,14.671
88078,218.767,42.283,14.56
88112,218.226,40.407,14.555
88146,218.049,39.208,14.642
88179,218.138,38.915,14.634
88228,218.131,38.918,14.768
88262,218.193,39.049,14.81
88296,218.157,39.153,14.604
88328,218.179,39.259,14.627
88362,218.128,39.212,14.574
88412,218.147,39.182,14.561
88446,218.139,39.249,14.678
88480,218.207,39.565,14.652
88514,218.347,39.974,14.584
88563,218.484,40.405,14.578
88612,218.612,40.745,14.563
88643,218.759,41.171,14.582
88671,218.83,41.568,14.493
88712,218.947,41.955,14.521
88748,219.136,42.395,14.62
88789,219.242,42.756,14.573
88813,219.3,43.172,14.616
88847,219.368,43.53,14.66
88899,219.011,42.897,14.667
88932,218.453,40.994,14.596
88964,218.139,39.478,14.629
89015,218.027,38.788,14.621
89032,218.097,38.642,14.644
89082,218.124,38.667,14.595
