time,R,G,B
0,193.006,0.0,0.0
34,193.107,0.0,0.0
67,193.313,0.0,0.0
99,193.501,0.0,0.0
133,193.49,0.0,0.0
167,192.816,0.0,0.0
200,191.761,0.0,0.0
233,190.912,0.0,0.0
267,190.497,0.0,0.0
300,190.415,0.0,0.0
333,190.402,0.0,0.0
367,190.488,0.0,0.0
400,190.693,0.0,0.0
433,190.77,0.0,0.0
467,190.803,0.0,0.0
500,190.731,0.0,0.0
533,190.758,0.0,0.0
566,190.806,0.0,0.0
599,190.933,0.0,0.0
633,191.15,0.0,0.0
666,191.332,0.0,0.0
700,191.495,0.0,0.0
733,191.721,0.0,0.0
766,191.893,0.0,0.0
833,192.099,0.0,0.0
866,192.244,0.0,0.0
899,192.379,0.0,0.0
933,192.481,0.0,0.0
966,192.681,0.0,0.0
999,192.601,0.0,0.0
1033,191.957,0.0,0.0
1099,190.24,0.0,0.0
1133,189.931,0.0,0.0
1166,189.902,0.0,0.0
1233,190.031,0.0,0.0
1266,190.173,0.0,0.0
1299,190.278,0.0,0.0
1332,190.205,0.0,0.0
1366,190.172,0.0,0.0
1399,190.158,0.0,0.0
1466,190.392,0.0,0.0
1499,190.53,0.0,0.0
1532,190.757,0.0,0.0
1566,190.935,0.0,0.0
1599,191.088,0.0,0.0
1632,191.279,0.0,0.0
1665,191.415,0.0,0.0
1699,191.591,0.0,0.0
1732,191.699,0.0,0.0
1765,191.844,0.0,0.0
1799,192.043,0.0,0.0
1832,192.264,0.0,0.0
1865,192.39,0.0,0.0
1899,191.98,0.0,0.0
1932,191.075,0.0,0.0
1965,190.198,0.0,0.0
1999,189.68,0.0,0.0
2032,189.523,0.0,0.0
2099,189.567,0.0,0.0
2132,189.634,0.0,0.0
2165,189.748,0.0,0.0
2198,189.774,0.0,0.0
2232,189.71,0.0,0.0
2265,189.668,0.0,0.0
2298,189.663,0.0,0.0
2332,189.717,0.0,0.0
2365,189.899,0.0,0.0
2398,190.044,0.0,0.0
2432,190.195,0.0,0.0
2465,190.434,0.0,0.0
2498,190.638,0.0,0.0
2531,190.761,0.0,0.0
2598,190.578,0.0,0.0
2631,190.611,0.0,0.0
2665,190.753,0.0,0.0
2698,190.913,0.0,0.0
2731,191.064,0.0,0.0
2765,191.173,0.0,0.0
2798,190.798,0.0,0.0
2831,189.906,0.0,0.0
2865,189.015,0.0,0.0
2931,188.327,0.0,0.0
2964,188.388,0.0,0.0
2998,188.469,0.0,0.0
3031,188.698,0.0,0.0
3063,188.842,0.0,0.0
3131,188.813,0.0,0.0
3164,188.777,0.0,0.0
3198,188.848,0.0,0.0
3231,189.017,0.0,0.0
3264,189.242,0.0,0.0
3298,189.458,0.0,0.0
3364,189.955,0.0,0.0
3397,190.119,0.0,0.0
3431,190.303,0.0,0.0
3464,190.395,0.0,0.0
3497,190.552,0.0,0.0
3531,190.702,0.0,0.0
3563,190.89,0.0,0.0
3597,191.089,0.0,0.0
3631,191.086,0.0,0.0
3664,190.4,0.0,0.0
3697,189.395,0.0,0.0
3731,188.718,0.0,0.0
3764,188.407,0.0,0.0
3796,188.402,0.0,0.0
3830,188.467,0.0,0.0
3864,188.646,0.0,0.0
3897,188.885,0.0,0.0
3930,189.007,0.0,0.0
3964,189.016,0.0,0.0
4030,189.057,0.0,0.0
4063,189.146,0.0,0.0
4097,189.234,0.0,0.0
4130,189.395,0.0,0.0
4163,189.58,0.0,0.0
4197,189.806,0.0,0.0
4230,189.942,0.0,0.0
4263,190.102,0.0,0.0
4296,190.255,0.0,0.0
4330,190.391,0.0,0.0
4363,190.501,0.0,0.0
4397,190.649,0.0,0.0
4430,190.815,0.0,0.0
4463,190.973,0.0,0.0
4497,190.963,0.0,0.0
4530,190.326,0.0,0.0
4563,189.23,0.0,0.0
4596,188.355,0.0,0.0
4630,187.963,0.0,0.0
4663,187.88,0.0,0.0
4696,187.893,0.0,0.0
4730,187.962,0.0,0.0
4763,187.965,0.0,0.0
4796,188.046,0.0,0.0
4830,188.063,0.0,0.0
4863,187.892,0.0,0.0
4896,187.838,0.0,0.0
4930,187.948,0.0,0.0
4963,188.126,0.0,0.0
4996,188.368,0.0,0.0
5029,188.644,0.0,0.0
5063,188.943,0.0,0.0
5096,189.199,0.0,0.0
5129,189.294,0.0,0.0
5163,189.264,0.0,0.0
5196,189.423,0.0,0.0
5229,189.482,0.0,0.0
5263,189.449,0.0,0.0
5296,189.459,0.0,0.0
5329,189.487,0.0,0.0
5363,189.563,0.0,0.0
5396,189.207,0.0,0.0
5429,188.307,0.0,0.0
5462,187.526,0.0,0.0
5496,187.1,0.0,0.0
5562,187.044,0.0,0.0
5596,187.085,0.0,0.0
5629,187.268,0.0,0.0
5662,187.451,0.0,0.0
5696,187.566,0.0,0.0
5729,187.554,0.0,0.0
5762,187.438,0.0,0.0
5796,187.481,0.0,0.0
5829,187.727,0.0,0.0
5862,187.977,0.0,0.0
5895,188.213,0.0,0.0
5929,188.39,0.0,0.0
5962,188.621,0.0,0.0
5995,188.918,0.0,0.0
6029,189.148,0.0,0.0
6062,189.325,0.0,0.0
6095,189.394,0.0,0.0
6162,189.619,0.0,0.0
6195,189.656,0.0,0.0
6229,189.691,0.0,0.0
6262,189.332,0.0,0.0
6295,188.329,0.0,0.0
6328,187.368,0.0,0.0
6362,186.773,0.0,0.0
6395,186.569,0.0,0.0
6428,186.585,0.0,0.0
6462,186.486,0.0,0.0
6495,186.559,0.0,0.0
6528,186.6,0.0,0.0
6562,186.508,0.0,0.0
6595,186.414,0.0,0.0
6628,186.395,0.0,0.0
6661,186.469,0.0,0.0
6695,186.532,0.0,0.0
6728,186.76,0.0,0.0
6760,186.986,0.0,0.0
6795,187.281,0.0,0.0
6828,187.539,0.0,0.0
6861,187.761,0.0,0.0
6895,187.994,0.0,0.0
6928,188.155,0.0,0.0
6961,188.368,0.0,0.0
6995,188.593,0.0,0.0
7028,188.82,0.0,0.0
7061,188.771,0.0,0.0
7094,188.113,0.0,0.0
7128,187.193,0.0,0.0
7161,186.535,0.0,0.0
7194,186.311,0.0,0.0
7228,186.412,0.0,0.0
7260,186.505,0.0,0.0
7294,186.591,0.0,0.0
7328,186.797,0.0,0.0
7361,186.917,0.0,0.0
7394,186.815,0.0,0.0
7428,186.796,0.0,0.0
7461,186.812,0.0,0.0
7494,186.931,0.0,0.0
7527,187.076,0.0,0.0
7561,187.225,0.0,0.0
7594,187.363,0.0,0.0
7627,187.545,0.0,0.0
7661,187.872,0.0,0.0
7694,188.194,0.0,0.0
7727,188.315,0.0,0.0
7760,188.29,0.0,0.0
7794,188.31,0.0,0.0
7827,188.392,0.0,0.0
7860,188.414,0.0,0.0
7894,187.91,0.0,0.0
7927,186.944,0.0,0.0
7960,186.139,0.0,0.0
7994,185.748,0.0,0.0
8027,185.71,0.0,0.0
8060,185.769,0.0,0.0
8094,185.738,0.0,0.0
8127,185.811,0.0,0.0
8160,185.857,0.0,0.0
8194,185.889,0.0,0.0
8227,185.816,0.0,0.0
8260,185.724,0.0,0.0
8294,185.742,0.0,0.0
8327,185.814,0.0,0.0
8393,186.112,0.0,0.0
8427,186.282,0.0,0.0
8460,186.424,0.0,0.0
8493,186.555,0.0,0.0
8527,186.72,0.0,0.0
8560,186.808,0.0,0.0
8593,186.965,0.0,0.0
8627,187.146,0.0,0.0
8660,187.325,0.0,0.0
8693,187.208,0.0,0.0
8727,186.37,0.0,0.0
8760,185.449,0.0,0.0
8793,184.937,0.0,0.0
8826,184.762,0.0,0.0
8860,184.778,0.0,0.0
8893,184.795,0.0,0.0
8926,184.856,0.0,0.0
8960,184.971,0.0,0.0
8993,185.041,0.0,0.0
9026,185.0,0.0,0.0
9060,184.946,0.0,0.0
9093,184.919,0.0,0.0
9126,184.999,0.0,0.0
9159,185.175,0.0,0.0
9193,185.397,0.0,0.0
9226,185.55,0.0,0.0
9259,185.748,0.0,0.0
9293,185.909,0.0,0.0
9326,186.058,0.0,0.0
9359,186.191,0.0,0.0
9393,186.347,0.0,0.0
9426,186.498,0.0,0.0
9459,186.621,0.0,0.0
9493,186.834,0.0,0.0
9526,186.864,0.0,0.0
9559,186.288,0.0,0.0
9592,185.398,0.0,0.0
9626,184.667,0.0,0.0
9659,184.342,0.0,0.0
9692,184.267,0.0,0.0
9726,184.352,0.0,0.0
9759,184.418,0.0,0.0
9792,184.563,0.0,0.0
9826,184.752,0.0,0.0
9859,184.794,0.0,0.0
9892,184.839,0.0,0.0
9926,184.816,0.0,0.0
9959,184.922,0.0,0.0
9992,185.07,0.0,0.0
10025,185.287,0.0,0.0
10059,185.546,0.0,0.0
10092,185.815,0.0,0.0
10125,186.044,0.0,0.0
10159,186.238,0.0,0.0
10192,186.358,0.0,0.0
10224,186.509,0.0,0.0
10259,186.713,0.0,0.0
10292,186.902,0.0,0.0
10325,187.123,0.0,0.0
10359,187.371,0.0,0.0
10392,187.372,0.0,0.0
10425,186.681,0.0,0.0
10458,185.823,0.0,0.0
10492,185.347,0.0,0.0
10525,185.231,0.0,0.0
10558,185.338,0.0,0.0
10592,185.51,0.0,0.0
10625,185.722,0.0,0.0
10658,186.016,0.0,0.0
10692,186.073,0.0,0.0
10724,186.093,0.0,0.0
10758,186.069,0.0,0.0
10791,186.124,0.0,0.0
10825,186.22,0.0,0.0
10858,186.396,0.0,0.0
10891,186.651,0.0,0.0
10925,186.919,0.0,0.0
10958,187.162,0.0,0.0
10991,187.422,0.0,0.0
11025,187.583,0.0,0.0
11058,187.718,0.0,0.0
11091,187.841,0.0,0.0
11125,188.053,0.0,0.0
11158,188.246,0.0,0.0
11191,188.23,0.0,0.0
11224,187.715,0.0,0.0
11258,186.895,0.0,0.0
11291,186.3,0.0,0.0
11324,186.053,0.0,0.0
11358,186.016,0.0,0.0
11391,186.098,0.0,0.0
11424,186.292,0.0,0.0
11458,186.557,0.0,0.0
11491,186.725,0.0,0.0
11524,186.719,0.0,0.0
11558,186.688,0.0,0.0
11591,186.787,0.0,0.0
11624,186.913,0.0,0.0
11657,187.067,0.0,0.0
11691,187.265,0.0,0.0
11724,187.426,0.0,0.0
11757,187.541,0.0,0.0
11791,187.734,0.0,0.0
11824,187.922,0.0,0.0
11857,188.119,0.0,0.0
11891,188.179,0.0,0.0
11924,188.304,0.0,0.0
11957,188.372,0.0,0.0
11991,188.381,0.0,0.0
12024,188.043,0.0,0.0
12057,187.174,0.0,0.0
12090,186.25,0.0,0.0
12124,185.683,0.0,0.0
12157,185.495,0.0,0.0
12190,185.528,0.0,0.0
12224,185.595,0.0,0.0
12257,185.664,0.0,0.0
12290,185.913,0.0,0.0
12324,186.085,0.0,0.0
12357,186.167,0.0,0.0
12390,186.149,0.0,0.0
12423,186.153,0.0,0.0
12457,186.214,0.0,0.0
12490,186.359,0.0,0.0
12523,186.521,0.0,0.0
12557,186.671,0.0,0.0
12590,186.793,0.0,0.0
12623,186.972,0.0,0.0
12657,187.086,0.0,0.0
12690,187.271,0.0,0.0
12723,187.38,0.0,0.0
12757,187.514,0.0,0.0
12790,187.713,0.0,0.0
12823,187.914,0.0,0.0
12856,187.887,0.0,0.0
12890,187.171,0.0,0.0
12923,186.122,0.0,0.0
12956,185.406,0.0,0.0
12990,185.136,0.0,0.0
13023,185.116,0.0,0.0
13056,185.113,0.0,0.0
13090,185.117,0.0,0.0
13123,185.27,0.0,0.0
13156,185.362,0.0,0.0
13190,185.405,0.0,0.0
13223,185.339,0.0,0.0
13289,185.391,0.0,0.0
13323,185.465,0.0,0.0
13356,185.586,0.0,0.0
13389,185.724,0.0,0.0
13423,185.891,0.0,0.0
13456,186.1,0.0,0.0
13489,186.28,0.0,0.0
13523,186.437,0.0,0.0
13589,186.83,0.0,0.0
13623,187.033,0.0,0.0
13656,187.23,0.0,0.0
13688,187.449,0.0,0.0
13722,187.308,0.0,0.0
13756,186.482,0.0,0.0
13789,185.452,0.0,0.0
13822,184.799,0.0,0.0
13856,184.511,0.0,0.0
13889,184.482,0.0,0.0
13921,184.556,0.0,0.0
13956,184.707,0.0,0.0
13989,184.911,0.0,0.0
14022,185.042,0.0,0.0
14056,185.099,0.0,0.0
14089,185.173,0.0,0.0
14122,185.242,0.0,0.0
14155,185.356,0.0,0.0
14188,185.496,0.0,0.0
14222,185.699,0.0,0.0
14255,185.977,0.0,0.0
14289,186.189,0.0,0.0
14322,186.391,0.0,0.0
14355,186.526,0.0,0.0
14389,186.684,0.0,0.0
14421,186.819,0.0,0.0
14455,186.991,0.0,0.0
14488,187.128,0.0,0.0
14522,187.168,0.0,0.0
14555,186.643,0.0,0.0
14588,185.686,0.0,0.0
14622,184.873,0.0,0.0
14655,184.58,0.0,0.0
14688,184.654,0.0,0.0
14722,184.801,0.0,0.0
14755,184.981,0.0,0.0
14788,185.298,0.0,0.0
14822,185.533,0.0,0.0
14855,185.606,0.0,0.0
14888,185.592,0.0,0.0
14921,185.624,0.0,0.0
14955,185.691,0.0,0.0
14988,185.86,0.0,0.0
15021,186.128,0.0,0.0
15055,186.414,0.0,0.0
15088,186.619,0.0,0.0
15121,186.789,0.0,0.0
15155,186.926,0.0,0.0
15188,187.02,0.0,0.0
15221,187.157,0.0,0.0
15255,187.33,0.0,0.0
15288,187.382,0.0,0.0
15321,187.163,0.0,0.0
15354,186.278,0.0,0.0
15388,185.219,0.0,0.0
15421,184.59,0.0,0.0
15454,184.317,0.0,0.0
15488,184.308,0.0,0.0
15521,184.31,0.0,0.0
15554,184.347,0.0,0.0
15588,184.499,0.0,0.0
15621,184.618,0.0,0.0
15654,184.647,0.0,0.0
15688,184.632,0.0,0.0
15721,184.66,0.0,0.0
15754,184.808,0.0,0.0
15787,184.966,0.0,0.0
15821,185.104,0.0,0.0
15854,185.297,0.0,0.0
15887,185.431,0.0,0.0
15921,185.517,0.0,0.0
15954,185.647,0.0,0.0
15987,185.828,0.0,0.0
16021,185.954,0.0,0.0
16054,186.066,0.0,0.0
16087,186.199,0.0,0.0
16120,186.283,0.0,0.0
16154,185.863,0.0,0.0
16187,184.873,0.0,0.0
16220,183.959,0.0,0.0
16254,183.535,0.0,0.0
16287,183.445,0.0,0.0
16320,183.52,0.0,0.0
16354,183.541,0.0,0.0
16387,183.625,0.0,0.0
16420,183.845,0.0,0.0
16454,183.95,0.0,0.0
16487,183.97,0.0,0.0
16520,183.983,0.0,0.0
16553,184.006,0.0,0.0
16587,184.085,0.0,0.0
16620,184.284,0.0,0.0
16653,184.548,0.0,0.0
16687,184.805,0.0,0.0
16720,184.959,0.0,0.0
16753,185.105,0.0,0.0
16787,185.331,0.0,0.0
16820,185.482,0.0,0.0
16853,185.655,0.0,0.0
16887,185.87,0.0,0.0
16920,186.126,0.0,0.0
16953,186.328,0.0,0.0
16987,186.147,0.0,0.0
17020,185.29,0.0,0.0
17053,184.329,0.0,0.0
17086,183.793,0.0,0.0
17120,183.691,0.0,0.0
17153,183.811,0.0,0.0
17186,184.029,0.0,0.0
17220,184.298,0.0,0.0
17253,184.58,0.0,0.0
17286,184.761,0.0,0.0
17320,184.772,0.0,0.0
17353,184.804,0.0,0.0
17385,184.858,0.0,0.0
17419,185.015,0.0,0.0
17453,185.182,0.0,0.0
17486,185.423,0.0,0.0
17519,185.657,0.0,0.0
17553,185.915,0.0,0.0
17586,186.132,0.0,0.0
17619,186.343,0.0,0.0
17653,186.528,0.0,0.0
17686,186.706,0.0,0.0
17719,186.949,0.0,0.0
17753,187.014,0.0,0.0
17786,186.437,0.0,0.0
17819,185.525,0.0,0.0
17852,184.808,0.0,0.0
17885,184.571,0.0,0.0
17919,184.616,0.0,0.0
17952,184.743,0.0,0.0
17986,184.992,0.0,0.0
18019,185.318,0.0,0.0
18052,185.492,0.0,0.0
18086,185.499,0.0,0.0
18119,185.45,0.0,0.0
18152,185.522,0.0,0.0
18185,185.688,0.0,0.0
18219,185.891,0.0,0.0
18252,186.119,0.0,0.0
18285,186.357,0.0,0.0
18319,186.577,0.0,0.0
18352,186.819,0.0,0.0
18385,187.004,0.0,0.0
18452,187.307,0.0,0.0
18485,187.483,0.0,0.0
18519,187.616,0.0,0.0
18552,187.426,0.0,0.0
18585,186.547,0.0,0.0
18619,185.503,0.0,0.0
18652,184.883,0.0,0.0
18685,184.756,0.0,0.0
18718,184.811,0.0,0.0
18752,184.907,0.0,0.0
18785,185.067,0.0,0.0
18818,185.305,0.0,0.0
18852,185.477,0.0,0.0
18885,185.535,0.0,0.0
18918,185.562,0.0,0.0
18952,185.559,0.0,0.0
18985,185.66,0.0,0.0
19018,185.849,0.0,0.0
19051,186.046,0.0,0.0
19085,186.277,0.0,0.0
19118,186.469,0.0,0.0
19151,186.678,0.0,0.0
19185,186.807,0.0,0.0
19218,186.915,0.0,0.0
19251,187.076,0.0,0.0
19285,187.268,0.0,0.0
19318,187.411,0.0,0.0
19351,187.559,0.0,0.0
19385,187.425,0.0,0.0
19418,186.481,0.0,0.0
19451,185.404,0.0,0.0
19484,184.724,0.0,0.0
19518,184.532,0.0,0.0
19551,184.577,0.0,0.0
19584,184.613,0.0,0.0
19618,184.669,0.0,0.0
19684,185.081,0.0,0.0
19718,185.145,0.0,0.0
19751,185.141,0.0,0.0
19784,185.149,0.0,0.0
19818,185.262,0.0,0.0
19851,185.445,0.0,0.0
19884,185.674,0.0,0.0
19917,185.884,0.0,0.0
19951,186.054,0.0,0.0
19984,186.161,0.0,0.0
20017,186.338,0.0,0.0
20051,186.517,0.0,0.0
20084,186.638,0.0,0.0
20117,186.809,0.0,0.0
20151,186.968,0.0,0.0
20184,187.138,0.0,0.0
20217,187.175,0.0,0.0
20251,186.57,0.0,0.0
20284,185.432,0.0,0.0
20317,184.494,0.0,0.0
20349,184.051,0.0,0.0
20384,184.02,0.0,0.0
20417,184.077,0.0,0.0
20450,184.188,0.0,0.0
20484,184.432,0.0,0.0
20517,184.663,0.0,0.0
20550,184.787,0.0,0.0
20584,184.762,0.0,0.0
20617,184.754,0.0,0.0
20650,184.807,0.0,0.0
20683,184.871,0.0,0.0
20717,185.043,0.0,0.0
20750,185.34,0.0,0.0
20783,185.587,0.0,0.0
20817,185.747,0.0,0.0
20849,185.912,0.0,0.0
20883,185.987,0.0,0.0
20917,186.112,0.0,0.0
20950,186.307,0.0,0.0
20983,186.565,0.0,0.0
21017,186.834,0.0,0.0
21050,186.785,0.0,0.0
21083,185.995,0.0,0.0
21116,184.982,0.0,0.0
21150,184.275,0.0,0.0
21183,184.057,0.0,0.0
21216,184.202,0.0,0.0
21250,184.366,0.0,0.0
21283,184.546,0.0,0.0
21316,184.784,0.0,0.0
21349,184.866,0.0,0.0
21383,184.861,0.0,0.0
21416,184.792,0.0,0.0
21450,184.84,0.0,0.0
21483,184.989,0.0,0.0
21516,185.193,0.0,0.0
21549,185.438,0.0,0.0
21616,185.939,0.0,0.0
21649,186.157,0.0,0.0
21683,186.316,0.0,0.0
21716,186.455,0.0,0.0
21749,186.615,0.0,0.0
21783,186.779,0.0,0.0
21816,186.923,0.0,0.0
21849,186.593,0.0,0.0
21883,185.555,0.0,0.0
21916,184.489,0.0,0.0
21949,183.865,0.0,0.0
21982,183.7,0.0,0.0
22016,183.732,0.0,0.0
22049,183.821,0.0,0.0
22082,183.997,0.0,0.0
22116,184.362,0.0,0.0
22149,184.492,0.0,0.0
22182,184.369,0.0,0.0
22216,184.215,0.0,0.0
22249,184.233,0.0,0.0
22282,184.374,0.0,0.0
22316,184.669,0.0,0.0
22349,184.898,0.0,0.0
22382,185.096,0.0,0.0
22415,185.252,0.0,0.0
22482,185.694,0.0,0.0
22515,185.782,0.0,0.0
22549,185.871,0.0,0.0
22582,185.998,0.0,0.0
22615,186.145,0.0,0.0
22649,186.375,0.0,0.0
22682,186.316,0.0,0.0
22715,185.58,0.0,0.0
22749,184.338,0.0,0.0
22782,183.46,0.0,0.0
22815,183.171,0.0,0.0
22848,183.189,0.0,0.0
22882,183.231,0.0,0.0
22915,183.286,0.0,0.0
22948,183.432,0.0,0.0
22982,183.61,0.0,0.0
23015,183.648,0.0,0.0
23048,183.602,0.0,0.0
23082,183.581,0.0,0.0
23115,183.697,0.0,0.0
23148,183.827,0.0,0.0
23181,184.048,0.0,0.0
23215,184.288,0.0,0.0
23248,184.497,0.0,0.0
23281,184.682,0.0,0.0
23315,184.815,0.0,0.0
23348,185.005,0.0,0.0
23381,185.103,0.0,0.0
23415,185.283,0.0,0.0
23448,185.453,0.0,0.0
23481,185.65,0.0,0.0
23515,185.702,0.0,0.0
23548,185.28,0.0,0.0
23581,184.169,0.0,0.0
23614,183.172,0.0,0.0
23648,182.62,0.0,0.0
23681,182.539,0.0,0.0
23714,182.535,0.0,0.0
23748,182.581,0.0,0.0
23781,182.696,0.0,0.0
23813,182.88,0.0,0.0
23848,182.993,0.0,0.0
23881,182.92,0.0,0.0
23914,182.845,0.0,0.0
23948,182.88,0.0,0.0
23981,182.999,0.0,0.0
24014,183.197,0.0,0.0
24046,183.424,0.0,0.0
24081,183.709,0.0,0.0
24114,183.918,0.0,0.0
24147,184.099,0.0,0.0
24181,184.281,0.0,0.0
24214,184.433,0.0,0.0
24247,184.634,0.0,0.0
24281,184.878,0.0,0.0
24313,185.141,0.0,0.0
24347,185.124,0.0,0.0
24381,184.396,0.0,0.0
24414,183.469,0.0,0.0
24447,182.888,0.0,0.0
24480,182.787,0.0,0.0
24514,182.91,0.0,0.0
24546,183.076,0.0,0.0
24580,183.259,0.0,0.0
24614,183.522,0.0,0.0
24647,183.719,0.0,0.0
24680,183.764,0.0,0.0
24714,183.718,0.0,0.0
24747,183.815,0.0,0.0
24780,183.988,0.0,0.0
24813,184.219,0.0,0.0
24847,184.523,0.0,0.0
24880,184.791,0.0,0.0
24913,185.092,0.0,0.0
24947,185.37,0.0,0.0
24980,185.597,0.0,0.0
25013,185.802,0.0,0.0
25046,186.024,0.0,0.0
25080,186.04,0.0,0.0
25113,185.587,0.0,0.0
25147,184.786,0.0,0.0
25180,184.222,0.0,0.0
25213,184.027,0.0,0.0
25247,184.14,0.0,0.0
25280,184.298,0.0,0.0
25313,184.525,0.0,0.0
25346,184.819,0.0,0.0
25380,185.028,0.0,0.0
25413,185.107,0.0,0.0
25446,185.172,0.0,0.0
25480,185.306,0.0,0.0
25513,185.497,0.0,0.0
25546,185.759,0.0,0.0
25580,185.98,0.0,0.0
25613,186.227,0.0,0.0
25679,186.676,0.0,0.0
25713,186.883,0.0,0.0
25746,187.079,0.0,0.0
25779,187.25,0.0,0.0
25813,187.261,0.0,0.0
25846,186.72,0.0,0.0
25879,185.913,0.0,0.0
25913,185.353,0.0,0.0
25946,185.079,0.0,0.0
25979,185.0,0.0,0.0
26013,185.014,0.0,0.0
26046,185.057,0.0,0.0
26079,185.257,0.0,0.0
26112,185.428,0.0,0.0
26146,185.482,0.0,0.0
26179,185.527,0.0,0.0
26212,185.618,0.0,0.0
26246,185.652,0.0,0.0
26279,185.82,0.0,0.0
26312,185.973,0.0,0.0
26346,186.187,0.0,0.0
26379,186.332,0.0,0.0
26412,186.506,0.0,0.0
26446,186.68,0.0,0.0
26479,186.83,0.0,0.0
26512,186.951,0.0,0.0
26545,187.063,0.0,0.0
26612,186.048,0.0,0.0
26645,185.337,0.0,0.0
26679,184.975,0.0,0.0
26712,184.885,0.0,0.0
26745,184.847,0.0,0.0
26779,184.888,0.0,0.0
26812,184.977,0.0,0.0
26845,185.132,0.0,0.0
26879,185.259,0.0,0.0
26912,185.276,0.0,0.0
26945,185.312,0.0,0.0
26978,185.374,0.0,0.0
27012,185.442,0.0,0.0
27045,185.613,0.0,0.0
27078,185.756,0.0,0.0
27112,185.921,0.0,0.0
27145,186.043,0.0,0.0
27178,186.117,0.0,0.0
27212,186.211,0.0,0.0
27245,186.308,0.0,0.0
27278,186.471,0.0,0.0
27311,186.587,0.0,0.0
27345,186.723,0.0,0.0
27378,186.7,0.0,0.0
27411,186.122,0.0,0.0
27445,185.318,0.0,0.0
27478,184.801,0.0,0.0
27510,184.58,0.0,0.0
27545,184.547,0.0,0.0
27578,184.522,0.0,0.0
27611,184.605,0.0,0.0
27645,184.827,0.0,0.0
27711,185.025,0.0,0.0
27744,185.041,0.0,0.0
27778,185.059,0.0,0.0
27811,185.18,0.0,0.0
27844,185.33,0.0,0.0
27878,185.499,0.0,0.0
27911,185.674,0.0,0.0
27944,185.767,0.0,0.0
27978,185.892,0.0,0.0
28010,185.965,0.0,0.0
28044,186.035,0.0,0.0
28078,186.139,0.0,0.0
28111,186.279,0.0,0.0
28144,186.428,0.0,0.0
28177,186.623,0.0,0.0
28211,186.721,0.0,0.0
28244,186.495,0.0,0.0
28277,185.793,0.0,0.0
28311,185.1,0.0,0.0
28344,184.71,0.0,0.0
28377,184.636,0.0,0.0
28411,184.607,0.0,0.0
28444,184.701,0.0,0.0
28477,184.907,0.0,0.0
28510,185.101,0.0,0.0
28544,185.202,0.0,0.0
28577,185.268,0.0,0.0
28610,185.284,0.0,0.0
28644,185.351,0.0,0.0
28677,185.481,0.0,0.0
28710,185.628,0.0,0.0
28744,185.788,0.0,0.0
28777,185.96,0.0,0.0
28810,186.079,0.0,0.0
28844,186.092,0.0,0.0
28877,186.218,0.0,0.0
28910,186.299,0.0,0.0
28944,186.439,0.0,0.0
28977,186.595,0.0,0.0
29010,186.772,0.0,0.0
29043,186.95,0.0,0.0
29077,186.903,0.0,0.0
29110,186.313,0.0,0.0
29143,185.76,0.0,0.0
29177,185.518,0.0,0.0
29210,185.495,0.0,0.0
29243,185.584,0.0,0.0
29277,185.736,0.0,0.0
29310,185.915,0.0,0.0
29343,186.072,0.0,0.0
29376,186.128,0.0,0.0
29410,186.146,0.0,0.0
29443,186.159,0.0,0.0
29476,186.216,0.0,0.0
29510,186.401,0.0,0.0
29543,186.629,0.0,0.0
29576,186.811,0.0,0.0
29610,187.007,0.0,0.0
29643,187.197,0.0,0.0
29676,187.377,0.0,0.0
29710,187.493,0.0,0.0
29743,187.678,0.0,0.0
29776,187.855,0.0,0.0
29809,188.049,0.0,0.0
29843,188.123,0.0,0.0
29876,187.811,0.0,0.0
29909,187.105,0.0,0.0
29943,186.535,0.0,0.0
29976,186.324,0.0,0.0
30009,186.226,0.0,0.0
30043,186.195,0.0,0.0
30076,186.229,0.0,0.0
30109,186.423,0.0,0.0
30143,186.686,0.0,0.0
30176,186.852,0.0,0.0
30209,186.913,0.0,0.0
30242,186.963,0.0,0.0
30276,187.088,0.0,0.0
30309,187.263,0.0,0.0
30342,187.442,0.0,0.0
30376,187.577,0.0,0.0
30409,187.746,0.0,0.0
30442,187.863,0.0,0.0
30476,187.96,0.0,0.0
30542,188.115,0.0,0.0
30575,188.277,0.0,0.0
30609,188.376,0.0,0.0
30642,188.485,0.0,0.0
30675,188.565,0.0,0.0
30709,188.538,0.0,0.0
30742,188.004,0.0,0.0
30775,187.232,0.0,0.0
30809,186.74,0.0,0.0
30842,186.507,0.0,0.0
30875,186.465,0.0,0.0
30909,186.39,0.0,0.0
30942,186.46,0.0,0.0
30974,186.59,0.0,0.0
31008,186.801,0.0,0.0
31042,186.887,0.0,0.0
31075,186.854,0.0,0.0
31108,186.868,0.0,0.0
31142,186.912,0.0,0.0
31175,187.075,0.0,0.0
31208,187.196,0.0,0.0
31242,187.322,0.0,0.0
31275,187.469,0.0,0.0
31308,187.632,0.0,0.0
31342,187.796,0.0,0.0
31375,187.917,0.0,0.0
31408,188.005,0.0,0.0
31441,188.088,0.0,0.0
31474,188.235,0.0,0.0
31508,188.397,0.0,0.0
31541,188.535,0.0,0.0
31575,188.682,0.0,0.0
31608,188.552,0.0,0.0
31641,187.823,0.0,0.0
31675,186.92,0.0,0.0
31708,186.325,0.0,0.0
31741,186.129,0.0,0.0
31775,186.128,0.0,0.0
31808,186.137,0.0,0.0
31841,186.193,0.0,0.0
31874,186.434,0.0,0.0
31908,186.567,0.0,0.0
31941,186.625,0.0,0.0
31974,186.652,0.0,0.0
32008,186.655,0.0,0.0
32041,186.774,0.0,0.0
32074,186.883,0.0,0.0
32108,187.062,0.0,0.0
32141,187.231,0.0,0.0
32174,187.409,0.0,0.0
32208,187.574,0.0,0.0
32241,187.646,0.0,0.0
32274,187.731,0.0,0.0
32307,187.83,0.0,0.0
32341,187.975,0.0,0.0
32374,188.086,0.0,0.0
32407,188.171,0.0,0.0
32441,188.312,0.0,0.0
32474,188.507,0.0,0.0
32507,188.695,0.0,0.0
32541,188.549,0.0,0.0
32574,187.764,0.0,0.0
32607,186.766,0.0,0.0
32641,186.16,0.0,0.0
32674,186.012,0.0,0.0
32707,186.038,0.0,0.0
32740,186.063,0.0,0.0
32774,186.148,0.0,0.0
32807,186.346,0.0,0.0
32840,186.528,0.0,0.0
32874,186.555,0.0,0.0
32907,186.547,0.0,0.0
32940,186.575,0.0,0.0
32974,186.686,0.0,0.0
33007,186.886,0.0,0.0
33040,187.102,0.0,0.0
33073,187.212,0.0,0.0
33107,187.371,0.0,0.0
33140,187.487,0.0,0.0
33173,187.671,0.0,0.0
33207,187.781,0.0,0.0
33240,187.882,0.0,0.0
33273,187.952,0.0,0.0
33307,188.038,0.0,0.0
33340,188.174,0.0,0.0
33373,188.375,0.0,0.0
33407,188.65,0.0,0.0
33440,188.825,0.0,0.0
33473,188.877,0.0,0.0
33506,188.319,0.0,0.0
33540,187.292,0.0,0.0
33573,186.441,0.0,0.0
33606,186.114,0.0,0.0
33640,186.1,0.0,0.0
33673,186.207,0.0,0.0
33706,186.311,0.0,0.0
33740,186.469,0.0,0.0
33773,186.669,0.0,0.0
33806,186.718,0.0,0.0
33840,186.709,0.0,0.0
33873,186.717,0.0,0.0
33906,186.785,0.0,0.0
33938,186.88,0.0,0.0
33973,187.044,0.0,0.0
34006,187.239,0.0,0.0
34039,187.474,0.0,0.0
34073,187.64,0.0,0.0
34106,187.812,0.0,0.0
34139,187.934,0.0,0.0
34173,188.016,0.0,0.0
34206,188.109,0.0,0.0
34239,188.223,0.0,0.0
34273,188.363,0.0,0.0
34306,188.547,0.0,0.0
34339,188.653,0.0,0.0
34372,188.292,0.0,0.0
34406,187.347,0.0,0.0
34438,186.537,0.0,0.0
34472,186.195,0.0,0.0
34506,186.149,0.0,0.0
34539,186.272,0.0,0.0
34572,186.419,0.0,0.0
34606,186.622,0.0,0.0
34639,186.864,0.0,0.0
34671,186.962,0.0,0.0
34706,186.894,0.0,0.0
34739,186.867,0.0,0.0
34772,186.994,0.0,0.0
34805,187.159,0.0,0.0
34839,187.4,0.0,0.0
34872,187.59,0.0,0.0
34905,187.859,0.0,0.0
34938,188.034,0.0,0.0
34972,188.215,0.0,0.0
35005,188.362,0.0,0.0
35039,188.517,0.0,0.0
35072,188.623,0.0,0.0
35105,188.713,0.0,0.0
35139,188.933,0.0,0.0
35171,189.024,0.0,0.0
35205,188.572,0.0,0.0
35238,187.575,0.0,0.0
35272,186.592,0.0,0.0
35305,186.186,0.0,0.0
35338,186.107,0.0,0.0
35372,186.147,0.0,0.0
35405,186.216,0.0,0.0
35438,186.348,0.0,0.0
35472,186.61,0.0,0.0
35505,186.741,0.0,0.0
35538,186.785,0.0,0.0
35571,186.76,0.0,0.0
35605,186.753,0.0,0.0
35638,186.909,0.0,0.0
35671,187.137,0.0,0.0
35705,187.386,0.0,0.0
35738,187.581,0.0,0.0
35771,187.773,0.0,0.0
35805,187.965,0.0,0.0
35838,188.049,0.0,0.0
35871,188.163,0.0,0.0
35905,188.303,0.0,0.0
35938,188.416,0.0,0.0
35971,188.584,0.0,0.0
36004,188.719,0.0,0.0
36038,188.484,0.0,0.0
36071,187.532,0.0,0.0
36104,186.517,0.0,0.0
36138,185.926,0.0,0.0
36171,185.747,0.0,0.0
36204,185.762,0.0,0.0
36238,185.818,0.0,0.0
36271,185.962,0.0,0.0
36304,186.201,0.0,0.0
36338,186.345,0.0,0.0
36371,186.411,0.0,0.0
36404,186.368,0.0,0.0
36437,186.413,0.0,0.0
36471,186.506,0.0,0.0
36504,186.68,0.0,0.0
36537,186.913,0.0,0.0
36571,187.143,0.0,0.0
36604,187.384,0.0,0.0
36637,187.607,0.0,0.0
36671,187.739,0.0,0.0
36704,187.875,0.0,0.0
36737,188.018,0.0,0.0
36771,188.207,0.0,0.0
36804,188.397,0.0,0.0
36837,188.629,0.0,0.0
36870,188.695,0.0,0.0
36904,188.159,0.0,0.0
36937,187.162,0.0,0.0
36970,186.306,0.0,0.0
37037,185.867,0.0,0.0
37070,185.89,0.0,0.0
37104,185.95,0.0,0.0
37137,186.103,0.0,0.0
37170,186.259,0.0,0.0
37203,186.346,0.0,0.0
37237,186.346,0.0,0.0
37270,186.322,0.0,0.0
37303,186.35,0.0,0.0
37337,186.53,0.0,0.0
37370,186.743,0.0,0.0
37403,186.978,0.0,0.0
37437,187.127,0.0,0.0
37470,187.315,0.0,0.0
37503,187.476,0.0,0.0
37537,187.597,0.0,0.0
37570,187.722,0.0,0.0
37603,187.83,0.0,0.0
37635,187.976,0.0,0.0
37670,188.12,0.0,0.0
37703,188.33,0.0,0.0
37736,188.367,0.0,0.0
37803,186.839,0.0,0.0
37836,185.972,0.0,0.0
37870,185.575,0.0,0.0
37903,185.54,0.0,0.0
37936,185.571,0.0,0.0
37970,185.685,0.0,0.0
38003,185.883,0.0,0.0
38069,186.198,0.0,0.0
38103,186.277,0.0,0.0
38135,186.333,0.0,0.0
38169,186.437,0.0,0.0
38203,186.611,0.0,0.0
38236,186.865,0.0,0.0
38269,187.114,0.0,0.0
38303,187.376,0.0,0.0
38336,187.544,0.0,0.0
38369,187.676,0.0,0.0
38403,187.782,0.0,0.0
38469,187.951,0.0,0.0
38502,188.084,0.0,0.0
38536,188.208,0.0,0.0
38569,188.005,0.0,0.0
38602,187.209,0.0,0.0
38635,186.389,0.0,0.0
38669,185.921,0.0,0.0
38702,185.853,0.0,0.0
38736,185.957,0.0,0.0
38769,186.139,0.0,0.0
38802,186.392,0.0,0.0
38836,186.669,0.0,0.0
38869,186.801,0.0,0.0
38902,186.777,0.0,0.0
38935,186.748,0.0,0.0
38969,186.792,0.0,0.0
39002,186.92,0.0,0.0
39035,187.123,0.0,0.0
39069,187.327,0.0,0.0
39102,187.526,0.0,0.0
39135,187.707,0.0,0.0
39169,187.896,0.0,0.0
39202,188.072,0.0,0.0
39235,188.165,0.0,0.0
39268,188.288,0.0,0.0
39302,188.428,0.0,0.0
39335,188.591,0.0,0.0
39368,188.683,0.0,0.0
39402,188.226,0.0,0.0
39435,187.22,0.0,0.0
39468,186.342,0.0,0.0
39502,185.975,0.0,0.0
39535,185.898,0.0,0.0
39568,185.926,0.0,0.0
39602,185.972,0.0,0.0
39635,186.149,0.0,0.0
39668,186.378,0.0,0.0
39701,186.519,0.0,0.0
39735,186.529,0.0,0.0
39801,186.645,0.0,0.0
39835,186.813,0.0,0.0
39868,187.03,0.0,0.0
39901,187.239,0.0,0.0
39935,187.431,0.0,0.0
39968,187.652,0.0,0.0
40001,187.841,0.0,0.0
40035,187.996,0.0,0.0
40068,188.12,0.0,0.0
40101,188.243,0.0,0.0
40135,188.403,0.0,0.0
40168,188.559,0.0,0.0
40201,188.749,0.0,0.0
40234,188.745,0.0,0.0
40268,188.072,0.0,0.0
40301,187.001,0.0,0.0
40334,186.216,0.0,0.0
40368,185.928,0.0,0.0
40401,185.911,0.0,0.0
40434,185.955,0.0,0.0
40468,186.013,0.0,0.0
40501,186.187,0.0,0.0
40534,186.393,0.0,0.0
40567,186.542,0.0,0.0
40601,186.541,0.0,0.0
40634,186.589,0.0,0.0
40667,186.696,0.0,0.0
40701,186.829,0.0,0.0
40734,187.01,0.0,0.0
40767,187.232,0.0,0.0
40801,187.435,0.0,0.0
40867,187.745,0.0,0.0
40901,187.906,0.0,0.0
40934,188.04,0.0,0.0
40967,188.163,0.0,0.0
41001,188.306,0.0,0.0
41034,188.452,0.0,0.0
41067,188.614,0.0,0.0
41099,188.823,0.0,0.0
41134,188.821,0.0,0.0
41167,188.189,0.0,0.0
41200,187.192,0.0,0.0
41234,186.415,0.0,0.0
41267,186.085,0.0,0.0
41300,186.051,0.0,0.0
41333,186.076,0.0,0.0
41367,186.144,0.0,0.0
41400,186.345,0.0,0.0
41433,186.547,0.0,0.0
41467,186.643,0.0,0.0
41500,186.576,0.0,0.0
41533,186.531,0.0,0.0
41567,186.538,0.0,0.0
41599,186.671,0.0,0.0
41633,186.831,0.0,0.0
41667,187.017,0.0,0.0
41700,187.192,0.0,0.0
41733,187.378,0.0,0.0
41767,187.466,0.0,0.0
41800,187.564,0.0,0.0
41833,187.681,0.0,0.0
41866,187.769,0.0,0.0
41900,187.891,0.0,0.0
41933,188.023,0.0,0.0
41966,188.171,0.0,0.0
42000,188.353,0.0,0.0
42033,188.461,0.0,0.0
42066,188.069,0.0,0.0
42099,187.091,0.0,0.0
42133,186.228,0.0,0.0
42166,185.791,0.0,0.0
42233,185.853,0.0,0.0
42266,185.972,0.0,0.0
42299,186.219,0.0,0.0
42333,186.417,0.0,0.0
42366,186.498,0.0,0.0
42399,186.456,0.0,0.0
42433,186.476,0.0,0.0
42466,186.546,0.0,0.0
42499,186.726,0.0,0.0
42533,186.921,0.0,0.0
42566,187.158,0.0,0.0
42599,187.383,0.0,0.0
42632,187.601,0.0,0.0
42666,187.766,0.0,0.0
42699,187.895,0.0,0.0
42766,188.195,0.0,0.0
42799,188.35,0.0,0.0
42832,188.519,0.0,0.0
42866,188.682,0.0,0.0
42899,188.492,0.0,0.0
42932,187.626,0.0,0.0
42966,186.614,0.0,0.0
42999,186.053,0.0,0.0
43032,186.008,0.0,0.0
43065,186.134,0.0,0.0
43132,186.492,0.0,0.0
43165,186.766,0.0,0.0
43199,186.86,0.0,0.0
43232,186.901,0.0,0.0
43265,186.897,0.0,0.0
43299,186.891,0.0,0.0
43332,187.008,0.0,0.0
43365,187.241,0.0,0.0
43399,187.439,0.0,0.0
43432,187.673,0.0,0.0
43465,187.827,0.0,0.0
43498,187.987,0.0,0.0
43532,188.146,0.0,0.0
43565,188.27,0.0,0.0
43598,188.406,0.0,0.0
43632,188.521,0.0,0.0
43665,188.665,0.0,0.0
43698,188.86,0.0,0.0
43732,189.027,0.0,0.0
43765,189.09,0.0,0.0
43831,187.333,0.0,0.0
43865,186.383,0.0,0.0
43898,185.974,0.0,0.0
43931,185.952,0.0,0.0
43965,186.02,0.0,0.0
43998,186.091,0.0,0.0
44031,186.192,0.0,0.0
44065,186.415,0.0,0.0
44098,186.585,0.0,0.0
44131,186.566,0.0,0.0
44165,186.568,0.0,0.0
44198,186.622,0.0,0.0
44231,186.742,0.0,0.0
44264,186.977,0.0,0.0
44298,187.208,0.0,0.0
44331,187.433,0.0,0.0
44364,187.644,0.0,0.0
44398,187.771,0.0,0.0
44431,187.908,0.0,0.0
44464,188.041,0.0,0.0
44498,188.14,0.0,0.0
44531,188.244,0.0,0.0
44563,188.339,0.0,0.0
44598,188.533,0.0,0.0
44631,188.75,0.0,0.0
44664,188.881,0.0,0.0
44697,188.449,0.0,0.0
44731,187.35,0.0,0.0
44764,186.266,0.0,0.0
44796,185.732,0.0,0.0
44831,185.62,0.0,0.0
44864,185.684,0.0,0.0
44897,185.744,0.0,0.0
44931,185.862,0.0,0.0
44964,186.037,0.0,0.0
44997,186.207,0.0,0.0
45031,186.223,0.0,0.0
45063,186.225,0.0,0.0
45097,186.24,0.0,0.0
45164,186.515,0.0,0.0
45197,186.677,0.0,0.0
45230,186.893,0.0,0.0
45264,187.075,0.0,0.0
45296,187.262,0.0,0.0
45330,187.391,0.0,0.0
45364,187.542,0.0,0.0
45397,187.618,0.0,0.0
45430,187.745,0.0,0.0
45463,187.871,0.0,0.0
45497,188.024,0.0,0.0
45530,188.249,0.0,0.0
45563,188.369,0.0,0.0
45597,187.962,0.0,0.0
45630,186.937,0.0,0.0
45663,185.896,0.0,0.0
45697,185.368,0.0,0.0
45730,185.282,0.0,0.0
45763,185.382,0.0,0.0
45796,185.515,0.0,0.0
45830,185.682,0.0,0.0
45863,185.926,0.0,0.0
45896,185.972,0.0,0.0
45930,185.948,0.0,0.0
45963,185.951,0.0,0.0
45996,185.995,0.0,0.0
46030,186.118,0.0,0.0
46063,186.291,0.0,0.0
46096,186.493,0.0,0.0
46130,186.69,0.0,0.0
46163,186.898,0.0,0.0
46196,187.09,0.0,0.0
46263,187.344,0.0,0.0
46296,187.493,0.0,0.0
46329,187.629,0.0,0.0
46363,187.83,0.0,0.0
46396,187.988,0.0,0.0
46429,187.653,0.0,0.0
46463,186.616,0.0,0.0
46496,185.575,0.0,0.0
46529,185.006,0.0,0.0
46563,184.917,0.0,0.0
46596,185.044,0.0,0.0
46629,185.142,0.0,0.0
46663,185.313,0.0,0.0
46696,185.56,0.0,0.0
46729,185.705,0.0,0.0
46762,185.726,0.0,0.0
46796,185.68,0.0,0.0
46829,185.637,0.0,0.0
46862,185.769,0.0,0.0
46896,185.986,0.0,0.0
46929,186.185,0.0,0.0
46962,186.462,0.0,0.0
46996,186.707,0.0,0.0
47029,186.872,0.0,0.0
47062,187.03,0.0,0.0
47096,187.203,0.0,0.0
47129,187.319,0.0,0.0
47162,187.421,0.0,0.0
47195,187.566,0.0,0.0
47229,187.727,0.0,0.0
47262,187.914,0.0,0.0
47295,187.85,0.0,0.0
47329,186.946,0.0,0.0
47362,185.707,0.0,0.0
47395,184.804,0.0,0.0
47429,184.518,0.0,0.0
47462,184.528,0.0,0.0
47495,184.612,0.0,0.0
47529,184.703,0.0,0.0
47595,185.097,0.0,0.0
47628,185.162,0.0,0.0
47662,185.133,0.0,0.0
47695,185.077,0.0,0.0
47728,185.13,0.0,0.0
47762,185.255,0.0,0.0
47795,185.459,0.0,0.0
47828,185.698,0.0,0.0
47862,185.922,0.0,0.0
47895,186.179,0.0,0.0
47928,186.36,0.0,0.0
47961,186.516,0.0,0.0
47995,186.623,0.0,0.0
48028,186.752,0.0,0.0
48061,186.896,0.0,0.0
48095,187.082,0.0,0.0
48128,187.285,0.0,0.0
48161,187.331,0.0,0.0
48195,186.683,0.0,0.0
48228,185.461,0.0,0.0
48260,184.481,0.0,0.0
48295,184.026,0.0,0.0
48328,183.95,0.0,0.0
48361,184.046,0.0,0.0
48394,184.189,0.0,0.0
48428,184.369,0.0,0.0
48461,184.597,0.0,0.0
48494,184.679,0.0,0.0
48528,184.601,0.0,0.0
48561,184.581,0.0,0.0
48594,184.688,0.0,0.0
48628,184.848,0.0,0.0
48661,185.042,0.0,0.0
48694,185.25,0.0,0.0
48728,185.477,0.0,0.0
48760,185.693,0.0,0.0
48794,185.788,0.0,0.0
48861,186.005,0.0,0.0
48894,186.096,0.0,0.0
48927,186.239,0.0,0.0
48961,186.38,0.0,0.0
48994,186.534,0.0,0.0
49027,186.106,0.0,0.0
49061,185.063,0.0,0.0
49094,184.07,0.0,0.0
49127,183.58,0.0,0.0
49160,183.585,0.0,0.0
49194,183.741,0.0,0.0
49227,183.941,0.0,0.0
49260,184.225,0.0,0.0
49294,184.462,0.0,0.0
49327,184.53,0.0,0.0
49360,184.495,0.0,0.0
49394,184.434,0.0,0.0
49460,184.679,0.0,0.0
49494,184.891,0.0,0.0
49527,185.181,0.0,0.0
49560,185.434,0.0,0.0
49594,185.657,0.0,0.0
49627,185.877,0.0,0.0
49660,185.976,0.0,0.0
49693,186.165,0.0,0.0
49727,186.337,0.0,0.0
49760,186.539,0.0,0.0
49793,186.669,0.0,0.0
49827,186.356,0.0,0.0
49860,185.29,0.0,0.0
49893,184.157,0.0,0.0
49927,183.541,0.0,0.0
49993,183.407,0.0,0.0
50027,183.545,0.0,0.0
50060,183.659,0.0,0.0
50093,183.889,0.0,0.0
50126,184.086,0.0,0.0
50160,184.094,0.0,0.0
50193,184.08,0.0,0.0
50226,184.087,0.0,0.0
50260,184.229,0.0,0.0
50293,184.413,0.0,0.0
50326,184.647,0.0,0.0
50360,184.931,0.0,0.0
50393,185.168,0.0,0.0
50426,185.404,0.0,0.0
50459,185.605,0.0,0.0
50526,185.811,0.0,0.0
50559,185.997,0.0,0.0
50593,186.182,0.0,0.0
50626,186.338,0.0,0.0
50659,186.125,0.0,0.0
50693,185.129,0.0,0.0
50726,183.913,0.0,0.0
50759,183.171,0.0,0.0
50793,182.942,0.0,0.0
50826,182.946,0.0,0.0
50859,183.021,0.0,0.0
50892,183.14,0.0,0.0
50926,183.361,0.0,0.0
50959,183.552,0.0,0.0
50992,183.627,0.0,0.0
51026,183.594,0.0,0.0
51059,183.607,0.0,0.0
51092,183.728,0.0,0.0
51126,183.94,0.0,0.0
51159,184.19,0.0,0.0
51192,184.411,0.0,0.0
51226,184.698,0.0,0.0
51259,184.899,0.0,0.0
51292,185.091,0.0,0.0
51325,185.252,0.0,0.0
51392,185.614,0.0,0.0
51425,185.825,0.0,0.0
51459,186.063,0.0,0.0
51492,186.135,0.0,0.0
51525,185.669,0.0,0.0
51559,184.603,0.0,0.0
51592,183.577,0.0,0.0
51625,183.107,0.0,0.0
51659,183.043,0.0,0.0
51692,183.128,0.0,0.0
51724,183.265,0.0,0.0
51792,183.684,0.0,0.0
51825,183.828,0.0,0.0
51858,183.838,0.0,0.0
51892,183.778,0.0,0.0
51925,183.838,0.0,0.0
51958,184.007,0.0,0.0
51992,184.228,0.0,0.0
52025,184.437,0.0,0.0
52058,184.73,0.0,0.0
52091,184.975,0.0,0.0
52125,185.158,0.0,0.0
52191,185.44,0.0,0.0
52224,185.548,0.0,0.0
52258,185.754,0.0,0.0
52291,185.932,0.0,0.0
52325,186.072,0.0,0.0
52358,185.656,0.0,0.0
52391,184.627,0.0,0.0
52425,183.702,0.0,0.0
52458,183.256,0.0,0.0
52491,183.228,0.0,0.0
52524,183.359,0.0,0.0
52558,183.568,0.0,0.0
52591,183.882,0.0,0.0
52624,184.075,0.0,0.0
52658,184.153,0.0,0.0
52691,184.099,0.0,0.0
52724,184.063,0.0,0.0
52758,184.161,0.0,0.0
52791,184.352,0.0,0.0
52824,184.554,0.0,0.0
52858,184.804,0.0,0.0
52891,185.019,0.0,0.0
52924,185.261,0.0,0.0
52957,185.461,0.0,0.0
52991,185.628,0.0,0.0
53024,185.824,0.0,0.0
53057,185.944,0.0,0.0
53091,186.142,0.0,0.0
53124,186.17,0.0,0.0
53157,185.442,0.0,0.0
53191,184.346,0.0,0.0
53224,183.574,0.0,0.0
53257,183.278,0.0,0.0
53291,183.287,0.0,0.0
53324,183.349,0.0,0.0
53357,183.456,0.0,0.0
53390,183.651,0.0,0.0
53424,183.9,0.0,0.0
53457,183.973,0.0,0.0
53490,183.985,0.0,0.0
53524,183.985,0.0,0.0
53557,184.062,0.0,0.0
53590,184.263,0.0,0.0
53624,184.49,0.0,0.0
53657,184.691,0.0,0.0
53690,184.968,0.0,0.0
53724,185.151,0.0,0.0
53790,185.467,0.0,0.0
53823,185.645,0.0,0.0
53857,185.791,0.0,0.0
53890,185.945,0.0,0.0
53923,186.052,0.0,0.0
53957,185.506,0.0,0.0
53990,184.399,0.0,0.0
54023,183.487,0.0,0.0
54057,183.036,0.0,0.0
54090,182.973,0.0,0.0
54123,183.05,0.0,0.0
54156,183.216,0.0,0.0
54190,183.407,0.0,0.0
54223,183.622,0.0,0.0
54256,183.73,0.0,0.0
54290,183.735,0.0,0.0
54323,183.731,0.0,0.0
54356,183.787,0.0,0.0
54390,183.933,0.0,0.0
54423,184.108,0.0,0.0
54456,184.381,0.0,0.0
54490,184.596,0.0,0.0
54523,184.856,0.0,0.0
54556,185.011,0.0,0.0
54589,185.155,0.0,0.0
54623,185.332,0.0,0.0
54656,185.485,0.0,0.0
54688,185.682,0.0,0.0
54723,185.805,0.0,0.0
54756,185.711,0.0,0.0
54789,184.89,0.0,0.0
54823,183.792,0.0,0.0
54856,183.079,0.0,0.0
54889,182.897,0.0,0.0
54923,182.948,0.0,0.0
54956,183.081,0.0,0.0
54989,183.314,0.0,0.0
55023,183.556,0.0,0.0
55056,183.765,0.0,0.0
55089,183.861,0.0,0.0
55122,183.899,0.0,0.0
55156,183.921,0.0,0.0
55188,183.983,0.0,0.0
55222,184.189,0.0,0.0
55256,184.434,0.0,0.0
55289,184.687,0.0,0.0
55322,184.92,0.0,0.0
55356,185.081,0.0,0.0
55389,185.238,0.0,0.0
55421,185.341,0.0,0.0
55455,185.487,0.0,0.0
55489,185.668,0.0,0.0
55522,185.654,0.0,0.0
55555,184.991,0.0,0.0
55589,183.984,0.0,0.0
55622,183.262,0.0,0.0
55655,183.053,0.0,0.0
55688,183.147,0.0,0.0
55722,183.339,0.0,0.0
55755,183.582,0.0,0.0
55788,183.905,0.0,0.0
55822,184.061,0.0,0.0
55855,184.056,0.0,0.0
55921,184.087,0.0,0.0
55955,184.22,0.0,0.0
56022,184.693,0.0,0.0
56055,184.951,0.0,0.0
56088,185.213,0.0,0.0
56122,185.445,0.0,0.0
56155,185.652,0.0,0.0
56188,185.789,0.0,0.0
56221,185.984,0.0,0.0
56255,186.133,0.0,0.0
56288,185.708,0.0,0.0
56321,184.689,0.0,0.0
56355,183.679,0.0,0.0
56388,183.088,0.0,0.0
56421,182.933,0.0,0.0
56455,182.974,0.0,0.0
56488,183.067,0.0,0.0
56521,183.226,0.0,0.0
56555,183.52,0.0,0.0
56588,183.692,0.0,0.0
56621,183.627,0.0,0.0
56655,183.61,0.0,0.0
56688,183.597,0.0,0.0
56721,183.753,0.0,0.0
56754,183.923,0.0,0.0
56788,184.127,0.0,0.0
56821,184.355,0.0,0.0
56854,184.621,0.0,0.0
56888,184.829,0.0,0.0
56921,184.979,0.0,0.0
56954,185.175,0.0,0.0
56988,185.403,0.0,0.0
57021,185.579,0.0,0.0
57054,185.42,0.0,0.0
57087,184.477,0.0,0.0
57121,183.414,0.0,0.0
57154,182.743,0.0,0.0
57187,182.549,0.0,0.0
57221,182.53,0.0,0.0
57254,182.548,0.0,0.0
57287,182.64,0.0,0.0
57321,182.89,0.0,0.0
57354,183.095,0.0,0.0
57421,183.204,0.0,0.0
57454,183.238,0.0,0.0
57487,183.376,0.0,0.0
57520,183.581,0.0,0.0
57554,183.789,0.0,0.0
57587,184.048,0.0,0.0
57620,184.334,0.0,0.0
57654,184.597,0.0,0.0
57687,184.78,0.0,0.0
57720,184.98,0.0,0.0
57754,185.136,0.0,0.0
57787,185.293,0.0,0.0
57820,185.462,0.0,0.0
57887,184.35,0.0,0.0
57920,183.39,0.0,0.0
57953,182.806,0.0,0.0
57987,182.677,0.0,0.0
58020,182.688,0.0,0.0
58053,182.825,0.0,0.0
58087,183.038,0.0,0.0
58120,183.367,0.0,0.0
58153,183.525,0.0,0.0
58187,183.526,0.0,0.0
58220,183.553,0.0,0.0
58253,183.601,0.0,0.0
58287,183.725,0.0,0.0
58320,183.93,0.0,0.0
58353,184.146,0.0,0.0
58385,184.399,0.0,0.0
58420,184.637,0.0,0.0
58453,184.817,0.0,0.0
58486,184.977,0.0,0.0
58520,185.119,0.0,0.0
58553,185.242,0.0,0.0
58586,185.389,0.0,0.0
58620,185.395,0.0,0.0
58653,184.844,0.0,0.0
58686,183.943,0.0,0.0
58719,183.289,0.0,0.0
58753,183.084,0.0,0.0
58786,183.174,0.0,0.0
58819,183.388,0.0,0.0
58885,183.887,0.0,0.0
58919,184.077,0.0,0.0
58953,184.126,0.0,0.0
58986,184.129,0.0,0.0
59019,184.151,0.0,0.0
59053,184.288,0.0,0.0
59086,184.491,0.0,0.0
59119,184.705,0.0,0.0
59152,184.959,0.0,0.0
59219,185.299,0.0,0.0
59252,185.452,0.0,0.0
59286,185.653,0.0,0.0
59319,185.885,0.0,0.0
59352,186.066,0.0,0.0
59385,185.962,0.0,0.0
59419,185.205,0.0,0.0
59452,184.251,0.0,0.0
59486,183.635,0.0,0.0
59519,183.473,0.0,0.0
59552,183.549,0.0,0.0
59585,183.676,0.0,0.0
59619,183.866,0.0,0.0
59652,184.129,0.0,0.0
59685,184.257,0.0,0.0
59719,184.284,0.0,0.0
59752,184.309,0.0,0.0
59785,184.402,0.0,0.0
59819,184.555,0.0,0.0
59852,184.743,0.0,0.0
59885,184.929,0.0,0.0
59919,185.13,0.0,0.0
59952,185.355,0.0,0.0
59985,185.558,0.0,0.0
60018,185.763,0.0,0.0
60052,185.895,0.0,0.0
60085,186.006,0.0,0.0
60118,186.213,0.0,0.0
60152,186.384,0.0,0.0
60185,186.446,0.0,0.0
60252,184.833,0.0,0.0
60285,183.979,0.0,0.0
60318,183.528,0.0,0.0
60351,183.417,0.0,0.0
60385,183.475,0.0,0.0
60418,183.556,0.0,0.0
60451,183.806,0.0,0.0
60485,184.031,0.0,0.0
60518,184.071,0.0,0.0
60551,184.02,0.0,0.0
60585,184.072,0.0,0.0
60618,184.168,0.0,0.0
60651,184.347,0.0,0.0
60685,184.564,0.0,0.0
60718,184.791,0.0,0.0
60751,185.015,0.0,0.0
60784,185.263,0.0,0.0
60818,185.424,0.0,0.0
60851,185.569,0.0,0.0
60884,185.651,0.0,0.0
60918,185.763,0.0,0.0
60951,185.912,0.0,0.0
60984,186.102,0.0,0.0
61051,185.635,0.0,0.0
61084,184.567,0.0,0.0
61118,183.658,0.0,0.0
61151,183.191,0.0,0.0
61184,183.161,0.0,0.0
61217,183.253,0.0,0.0
61251,183.402,0.0,0.0
61284,183.657,0.0,0.0
61317,183.892,0.0,0.0
61351,183.992,0.0,0.0
61384,184.019,0.0,0.0
61417,184.009,0.0,0.0
61451,184.098,0.0,0.0
61484,184.275,0.0,0.0
61517,184.426,0.0,0.0
61584,184.92,0.0,0.0
61617,185.086,0.0,0.0
61650,185.264,0.0,0.0
61684,185.408,0.0,0.0
61717,185.542,0.0,0.0
61750,185.651,0.0,0.0
61784,185.77,0.0,0.0
61817,185.892,0.0,0.0
61849,185.542,0.0,0.0
61884,184.56,0.0,0.0
61917,183.704,0.0,0.0
61950,183.191,0.0,0.0
61983,183.071,0.0,0.0
62017,183.152,0.0,0.0
62050,183.324,0.0,0.0
62083,183.647,0.0,0.0
62117,183.935,0.0,0.0
62150,183.944,0.0,0.0
62183,183.837,0.0,0.0
62217,183.726,0.0,0.0
62250,183.668,0.0,0.0
62283,183.732,0.0,0.0
62317,183.919,0.0,0.0
62349,184.123,0.0,0.0
62383,184.332,0.0,0.0
62416,184.536,0.0,0.0
62450,184.695,0.0,0.0
62483,184.875,0.0,0.0
62516,185.063,0.0,0.0
62550,185.197,0.0,0.0
62583,185.195,0.0,0.0
62616,184.549,0.0,0.0
62650,183.478,0.0,0.0
62683,182.726,0.0,0.0
62716,182.414,0.0,0.0
62750,182.505,0.0,0.0
62783,182.705,0.0,0.0
62816,182.916,0.0,0.0
62849,183.259,0.0,0.0
62883,183.467,0.0,0.0
62916,183.485,0.0,0.0
62949,183.425,0.0,0.0
63016,183.489,0.0,0.0
63049,183.688,0.0,0.0
63083,183.885,0.0,0.0
63116,184.11,0.0,0.0
63149,184.362,0.0,0.0
63183,184.551,0.0,0.0
63216,184.619,0.0,0.0
63249,184.794,0.0,0.0
63282,184.951,0.0,0.0
63316,185.141,0.0,0.0
63349,185.194,0.0,0.0
63382,184.539,0.0,0.0
63416,183.321,0.0,0.0
63449,182.303,0.0,0.0
63482,181.854,0.0,0.0
63516,181.846,0.0,0.0
63549,181.922,0.0,0.0
63582,181.988,0.0,0.0
63616,182.171,0.0,0.0
63649,182.375,0.0,0.0
63715,182.435,0.0,0.0
63749,182.353,0.0,0.0
63782,182.437,0.0,0.0
63815,182.692,0.0,0.0
63849,182.968,0.0,0.0
63882,183.29,0.0,0.0
63915,183.58,0.0,0.0
63949,183.856,0.0,0.0
63982,184.041,0.0,0.0
64015,184.203,0.0,0.0
64048,184.287,0.0,0.0
64082,184.326,0.0,0.0
64115,184.411,0.0,0.0
64148,184.402,0.0,0.0
64182,183.863,0.0,0.0
64215,182.701,0.0,0.0
64248,181.584,0.0,0.0
64282,181.062,0.0,0.0
64315,180.972,0.0,0.0
64348,181.096,0.0,0.0
64382,181.165,0.0,0.0
64448,181.607,0.0,0.0
64482,181.723,0.0,0.0
64515,181.748,0.0,0.0
64548,181.762,0.0,0.0
64581,181.838,0.0,0.0
64615,181.939,0.0,0.0
64648,182.127,0.0,0.0
64681,182.39,0.0,0.0
64715,182.657,0.0,0.0
64748,182.963,0.0,0.0
64781,183.195,0.0,0.0
64815,183.351,0.0,0.0
64848,183.503,0.0,0.0
64881,183.665,0.0,0.0
64915,183.896,0.0,0.0
64948,184.015,0.0,0.0
64981,183.632,0.0,0.0
65014,182.509,0.0,0.0
65048,181.448,0.0,0.0
65081,180.851,0.0,0.0
65114,180.725,0.0,0.0
65148,180.761,0.0,0.0
65181,180.817,0.0,0.0
65214,180.905,0.0,0.0
65248,181.11,0.0,0.0
65281,181.284,0.0,0.0
65313,181.265,0.0,0.0
65347,181.238,0.0,0.0
65381,181.275,0.0,0.0
65414,181.372,0.0,0.0
65481,181.744,0.0,0.0
65514,181.987,0.0,0.0
65546,182.202,0.0,0.0
65581,182.388,0.0,0.0
65614,182.534,0.0,0.0
65647,182.645,0.0,0.0
65681,182.716,0.0,0.0
65714,182.736,0.0,0.0
65747,182.396,0.0,0.0
65780,181.35,0.0,0.0
65813,180.268,0.0,0.0
65847,179.751,0.0,0.0
65880,179.703,0.0,0.0
65914,179.832,0.0,0.0
65947,179.939,0.0,0.0
65980,180.151,0.0,0.0
66014,180.399,0.0,0.0
66046,180.476,0.0,0.0
66113,180.484,0.0,0.0
66147,180.53,0.0,0.0
66180,180.725,0.0,0.0
66213,180.86,0.0,0.0
66247,181.086,0.0,0.0
66280,181.325,0.0,0.0
66313,181.586,0.0,0.0
66347,181.825,0.0,0.0
66413,182.176,0.0,0.0
66447,182.316,0.0,0.0
66480,182.353,0.0,0.0
66513,181.816,0.0,0.0
66546,180.729,0.0,0.0
66580,179.92,0.0,0.0
66613,179.662,0.0,0.0
66646,179.723,0.0,0.0
66680,179.86,0.0,0.0
66713,180.015,0.0,0.0
66746,180.161,0.0,0.0
66780,180.218,0.0,0.0
66813,180.254,0.0,0.0
66846,180.253,0.0,0.0
66880,180.254,0.0,0.0
66913,180.345,0.0,0.0
66946,180.564,0.0,0.0
66979,180.84,0.0,0.0
67013,181.156,0.0,0.0
67046,181.453,0.0,0.0
67079,181.687,0.0,0.0
67146,182.051,0.0,0.0
67179,182.269,0.0,0.0
67213,182.45,0.0,0.0
67279,182.864,0.0,0.0
67313,182.337,0.0,0.0
67346,181.436,0.0,0.0
67379,180.791,0.0,0.0
67413,180.721,0.0,0.0
67446,180.892,0.0,0.0
67479,181.184,0.0,0.0
67512,181.522,0.0,0.0
67546,181.907,0.0,0.0
67579,182.16,0.0,0.0
67612,182.249,0.0,0.0
67646,182.253,0.0,0.0
67679,182.386,0.0,0.0
67712,182.536,0.0,0.0
67746,182.792,0.0,0.0
67779,183.096,0.0,0.0
67812,183.422,0.0,0.0
67845,183.701,0.0,0.0
67879,183.927,0.0,0.0
67912,184.113,0.0,0.0
67945,184.369,0.0,0.0
67979,184.588,0.0,0.0
68012,184.871,0.0,0.0
68045,184.866,0.0,0.0
68079,184.254,0.0,0.0
68112,183.446,0.0,0.0
68145,182.903,0.0,0.0
68179,182.845,0.0,0.0
68212,182.96,0.0,0.0
68245,183.223,0.0,0.0
68312,183.919,0.0,0.0
68345,184.109,0.0,0.0
68378,184.136,0.0,0.0
68412,184.159,0.0,0.0
68445,184.247,0.0,0.0
68478,184.408,0.0,0.0
68512,184.615,0.0,0.0
68545,184.87,0.0,0.0
68578,185.091,0.0,0.0
68645,185.628,0.0,0.0
68678,185.851,0.0,0.0
68711,186.006,0.0,0.0
68745,186.17,0.0,0.0
68778,186.312,0.0,0.0
68811,186.205,0.0,0.0
68845,185.445,0.0,0.0
68878,184.45,0.0,0.0
68911,183.859,0.0,0.0
68945,183.693,0.0,0.0
68978,183.742,0.0,0.0
69010,183.822,0.0,0.0
69044,183.905,0.0,0.0
69078,184.021,0.0,0.0
69144,184.182,0.0,0.0
69178,184.152,0.0,0.0
69211,184.17,0.0,0.0
69244,184.176,0.0,0.0
69278,184.194,0.0,0.0
69311,184.326,0.0,0.0
69344,184.518,0.0,0.0
69378,184.715,0.0,0.0
69411,184.826,0.0,0.0
69444,184.812,0.0,0.0
69477,184.856,0.0,0.0
69510,184.953,0.0,0.0
69544,185.081,0.0,0.0
69577,185.221,0.0,0.0
69611,184.9,0.0,0.0
69644,183.96,0.0,0.0
69677,182.954,0.0,0.0
69711,182.359,0.0,0.0
69744,182.263,0.0,0.0
69777,182.322,0.0,0.0
69811,182.381,0.0,0.0
69844,182.499,0.0,0.0
69877,182.594,0.0,0.0
69944,182.623,0.0,0.0
69977,182.473,0.0,0.0
70010,182.557,0.0,0.0
70044,182.75,0.0,0.0
70077,182.855,0.0,0.0
70110,182.83,0.0,0.0
70144,182.875,0.0,0.0
70177,183.062,0.0,0.0
70210,183.202,0.0,0.0
70244,183.375,0.0,0.0
70277,183.484,0.0,0.0
70310,183.568,0.0,0.0
70343,183.74,0.0,0.0
70377,183.947,0.0,0.0
70410,183.986,0.0,0.0
70443,183.408,0.0,0.0
70477,182.38,0.0,0.0
70510,181.58,0.0,0.0
70543,181.219,0.0,0.0
70577,181.15,0.0,0.0
70610,181.307,0.0,0.0
70643,181.505,0.0,0.0
70676,181.744,0.0,0.0
70710,181.843,0.0,0.0
70776,181.875,0.0,0.0
70810,181.916,0.0,0.0
70843,182.052,0.0,0.0
70876,182.182,0.0,0.0
70910,182.354,0.0,0.0
70943,182.488,0.0,0.0
70976,182.651,0.0,0.0
71010,182.802,0.0,0.0
71043,183.008,0.0,0.0
71076,183.124,0.0,0.0
71109,183.267,0.0,0.0
71143,183.348,0.0,0.0
71176,183.488,0.0,0.0
71209,183.635,0.0,0.0
71243,183.653,0.0,0.0
71276,183.141,0.0,0.0
71309,182.077,0.0,0.0
71343,181.173,0.0,0.0
71376,180.665,0.0,0.0
71443,180.528,0.0,0.0
71476,180.668,0.0,0.0
71542,181.127,0.0,0.0
71576,181.189,0.0,0.0
71609,181.131,0.0,0.0
71642,181.086,0.0,0.0
71676,181.132,0.0,0.0
71709,181.215,0.0,0.0
71742,181.412,0.0,0.0
71776,181.651,0.0,0.0
71809,181.87,0.0,0.0
71842,182.124,0.0,0.0
71876,182.3,0.0,0.0
71909,182.436,0.0,0.0
71942,182.59,0.0,0.0
71974,182.728,0.0,0.0
72042,183.014,0.0,0.0
72075,182.706,0.0,0.0
72109,181.786,0.0,0.0
72142,180.901,0.0,0.0
72175,180.447,0.0,0.0
72209,180.44,0.0,0.0
72242,180.632,0.0,0.0
72275,180.827,0.0,0.0
72309,181.136,0.0,0.0
72342,181.343,0.0,0.0
72375,181.42,0.0,0.0
72408,181.418,0.0,0.0
72442,181.436,0.0,0.0
72508,181.64,0.0,0.0
72542,181.887,0.0,0.0
72575,182.097,0.0,0.0
72608,182.35,0.0,0.0
72642,182.585,0.0,0.0
72675,182.748,0.0,0.0
72708,182.943,0.0,0.0
72741,183.113,0.0,0.0
72775,183.285,0.0,0.0
72808,183.427,0.0,0.0
72841,183.341,0.0,0.0
72908,181.493,0.0,0.0
72941,180.757,0.0,0.0
72974,180.534,0.0,0.0
73008,180.532,0.0,0.0
73041,180.696,0.0,0.0
73075,180.886,0.0,0.0
73108,181.117,0.0,0.0
73141,181.299,0.0,0.0
73174,181.324,0.0,0.0
73208,181.307,0.0,0.0
73241,181.331,0.0,0.0
73274,181.448,0.0,0.0
73308,181.647,0.0,0.0
73341,181.891,0.0,0.0
73374,182.117,0.0,0.0
73408,182.36,0.0,0.0
73441,182.574,0.0,0.0
73474,182.708,0.0,0.0
73508,182.839,0.0,0.0
73541,182.962,0.0,0.0
73574,183.121,0.0,0.0
73607,183.258,0.0,0.0
73641,183.396,0.0,0.0
73707,182.021,0.0,0.0
73741,180.92,0.0,0.0
73774,180.35,0.0,0.0
73807,180.209,0.0,0.0
73841,180.286,0.0,0.0
73874,180.373,0.0,0.0
73907,180.523,0.0,0.0
73941,180.796,0.0,0.0
73974,180.954,0.0,0.0
74007,180.996,0.0,0.0
74040,181.014,0.0,0.0
74074,181.078,0.0,0.0
74107,181.227,0.0,0.0
74140,181.42,0.0,0.0
74174,181.636,0.0,0.0
74207,181.865,0.0,0.0
74240,182.063,0.0,0.0
74274,182.225,0.0,0.0
74340,182.519,0.0,0.0
74374,182.589,0.0,0.0
74407,182.746,0.0,0.0
74440,182.963,0.0,0.0
74473,183.222,0.0,0.0
74507,183.364,0.0,0.0
74540,183.042,0.0,0.0
74573,182.011,0.0,0.0
74607,180.895,0.0,0.0
74640,180.273,0.0,0.0
74673,180.112,0.0,0.0
74707,180.187,0.0,0.0
74740,180.277,0.0,0.0
74773,180.446,0.0,0.0
74807,180.696,0.0,0.0
74840,180.846,0.0,0.0
74873,180.861,0.0,0.0
74906,180.842,0.0,0.0
74940,180.85,0.0,0.0
74973,180.969,0.0,0.0
75006,181.174,0.0,0.0
75040,181.418,0.0,0.0
75073,181.598,0.0,0.0
75106,181.799,0.0,0.0
75140,182.016,0.0,0.0
75173,182.156,0.0,0.0
75206,182.278,0.0,0.0
75239,182.392,0.0,0.0
75273,182.474,0.0,0.0
75306,182.565,0.0,0.0
75339,182.687,0.0,0.0
75373,182.905,0.0,0.0
75406,183.096,0.0,0.0
75438,183.129,0.0,0.0
75506,181.189,0.0,0.0
75539,180.373,0.0,0.0
75573,180.045,0.0,0.0
75606,180.053,0.0,0.0
75639,180.175,0.0,0.0
75671,180.312,0.0,0.0
75706,180.568,0.0,0.0
75739,180.781,0.0,0.0
75772,180.92,0.0,0.0
75806,180.882,0.0,0.0
75839,180.82,0.0,0.0
75872,180.921,0.0,0.0
75906,181.063,0.0,0.0
75938,181.28,0.0,0.0
75972,181.544,0.0,0.0
76006,181.768,0.0,0.0
76039,181.964,0.0,0.0
76072,182.13,0.0,0.0
76105,182.314,0.0,0.0
76139,182.438,0.0,0.0
76171,182.565,0.0,0.0
76205,182.693,0.0,0.0
76239,182.85,0.0,0.0
76272,183.012,0.0,0.0
76305,183.259,0.0,0.0
76339,183.448,0.0,0.0
76372,183.032,0.0,0.0
76405,181.955,0.0,0.0
76438,180.947,0.0,0.0
76505,180.46,0.0,0.0
76538,180.663,0.0,0.0
76572,180.955,0.0,0.0
76605,181.217,0.0,0.0
76638,181.474,0.0,0.0
76671,181.605,0.0,0.0
76705,181.627,0.0,0.0
76738,181.566,0.0,0.0
76772,181.644,0.0,0.0
76805,181.772,0.0,0.0
76838,182.057,0.0,0.0
76871,182.374,0.0,0.0
76905,182.712,0.0,0.0
76938,182.986,0.0,0.0
76971,183.223,0.0,0.0
77005,183.415,0.0,0.0
77038,183.593,0.0,0.0
77071,183.751,0.0,0.0
77105,183.95,0.0,0.0
77138,184.1,0.0,0.0
77205,183.763,0.0,0.0
77238,182.768,0.0,0.0
77271,181.839,0.0,0.0
77304,181.392,0.0,0.0
77338,181.42,0.0,0.0
77371,181.747,0.0,0.0
77404,182.093,0.0,0.0
77438,182.51,0.0,0.0
77471,182.766,0.0,0.0
77504,182.819,0.0,0.0
77538,182.763,0.0,0.0
77571,182.754,0.0,0.0
77604,182.79,0.0,0.0
77638,182.894,0.0,0.0
77671,183.106,0.0,0.0
77704,183.457,0.0,0.0
77737,183.824,0.0,0.0
77771,184.218,0.0,0.0
77804,184.576,0.0,0.0
77837,184.91,0.0,0.0
77871,185.158,0.0,0.0
77904,185.427,0.0,0.0
77937,185.62,0.0,0.0
77971,185.494,0.0,0.0
78004,184.586,0.0,0.0
78037,183.383,0.0,0.0
78104,182.178,0.0,0.0
78137,182.226,0.0,0.0
78170,182.394,0.0,0.0
78204,182.638,0.0,0.0
78237,182.948,0.0,0.0
78270,183.056,0.0,0.0
78304,183.032,0.0,0.0
78337,182.819,0.0,0.0
78370,182.568,0.0,0.0
78404,182.503,0.0,0.0
78437,182.615,0.0,0.0
78470,182.766,0.0,0.0
78537,183.242,0.0,0.0
78570,183.385,0.0,0.0
78603,183.54,0.0,0.0
78637,183.661,0.0,0.0
78670,183.689,0.0,0.0
78703,183.5,0.0,0.0
78737,182.646,0.0,0.0
78770,181.495,0.0,0.0
78803,180.692,0.0,0.0
78837,180.446,0.0,0.0
78870,180.559,0.0,0.0
78903,180.765,0.0,0.0
78936,181.026,0.0,0.0
78970,181.336,0.0,0.0
79003,181.461,0.0,0.0
79036,181.508,0.0,0.0
79070,181.467,0.0,0.0
79103,181.485,0.0,0.0
79135,181.61,0.0,0.0
79170,181.836,0.0,0.0
79203,182.184,0.0,0.0
79236,182.555,0.0,0.0
79270,182.863,0.0,0.0
79303,183.14,0.0,0.0
79336,183.346,0.0,0.0
79370,183.571,0.0,0.0
79403,183.765,0.0,0.0
79436,183.579,0.0,0.0
79469,182.66,0.0,0.0
79503,181.463,0.0,0.0
79536,180.724,0.0,0.0
79569,180.454,0.0,0.0
79603,180.518,0.0,0.0
79635,180.598,0.0,0.0
79669,180.784,0.0,0.0
79703,181.076,0.0,0.0
79769,181.293,0.0,0.0
79802,181.236,0.0,0.0
79836,181.261,0.0,0.0
79869,181.394,0.0,0.0
79902,181.593,0.0,0.0
79936,181.803,0.0,0.0
79969,182.109,0.0,0.0
80002,182.29,0.0,0.0
80036,182.501,0.0,0.0
80069,182.685,0.0,0.0
80102,182.859,0.0,0.0
80135,182.98,0.0,0.0
80169,183.14,0.0,0.0
80202,183.177,0.0,0.0
80235,182.415,0.0,0.0
80269,181.283,0.0,0.0
80302,180.396,0.0,0.0
80335,180.001,0.0,0.0
80369,179.913,0.0,0.0
80402,179.912,0.0,0.0
80435,179.986,0.0,0.0
80469,180.202,0.0,0.0
80502,180.503,0.0,0.0
80535,180.727,0.0,0.0
80568,180.834,0.0,0.0
80602,180.914,0.0,0.0
80668,181.249,0.0,0.0
80702,181.572,0.0,0.0
80735,181.836,0.0,0.0
80768,182.15,0.0,0.0
80802,182.434,0.0,0.0
80835,182.716,0.0,0.0
80868,182.938,0.0,0.0
80902,183.129,0.0,0.0
80935,183.305,0.0,0.0
80968,183.471,0.0,0.0
81002,183.743,0.0,0.0
81035,183.742,0.0,0.0
81068,183.034,0.0,0.0
81101,182.002,0.0,0.0
81135,181.3,0.0,0.0
81168,181.025,0.0,0.0
81201,180.947,0.0,0.0
81235,180.922,0.0,0.0
81268,180.949,0.0,0.0
81301,181.092,0.0,0.0
81335,181.375,0.0,0.0
81368,181.546,0.0,0.0
81401,181.705,0.0,0.0
81468,181.819,0.0,0.0
81501,181.975,0.0,0.0
81534,182.204,0.0,0.0
81568,182.45,0.0,0.0
81601,182.636,0.0,0.0
81634,182.644,0.0,0.0
81668,182.71,0.0,0.0
81701,182.96,0.0,0.0
81734,183.141,0.0,0.0
81768,183.317,0.0,0.0
81801,183.514,0.0,0.0
81867,183.899,0.0,0.0
81901,184.084,0.0,0.0
81934,184.311,0.0,0.0
81967,184.507,0.0,0.0
82001,184.12,0.0,0.0
82034,183.178,0.0,0.0
82067,182.315,0.0,0.0
82101,181.853,0.0,0.0
82134,181.698,0.0,0.0
82167,181.696,0.0,0.0
82201,181.748,0.0,0.0
82234,181.861,0.0,0.0
82267,182.096,0.0,0.0
82300,182.331,0.0,0.0
82334,182.489,0.0,0.0
82367,182.562,0.0,0.0
82400,182.624,0.0,0.0
82434,182.809,0.0,0.0
82467,183.033,0.0,0.0
82500,183.274,0.0,0.0
82567,183.804,0.0,0.0
82599,184.007,0.0,0.0
82633,184.189,0.0,0.0
82667,184.423,0.0,0.0
82700,184.619,0.0,0.0
82733,184.836,0.0,0.0
82767,185.063,0.0,0.0
82800,185.228,0.0,0.0
82833,185.462,0.0,0.0
82867,185.667,0.0,0.0
82900,185.821,0.0,0.0
82933,186.04,0.0,0.0
82967,186.255,0.0,0.0
83000,186.409,0.0,0.0
83033,185.981,0.0,0.0
83067,185.075,0.0,0.0
83099,184.261,0.0,0.0
83133,183.917,0.0,0.0
83166,183.897,0.0,0.0
83200,183.937,0.0,0.0
83233,184.017,0.0,0.0
83266,184.179,0.0,0.0
83300,184.461,0.0,0.0
83333,184.772,0.0,0.0
83366,184.915,0.0,0.0
83400,184.96,0.0,0.0
83466,185.194,0.0,0.0
83499,185.373,0.0,0.0
83533,185.625,0.0,0.0
83566,185.924,0.0,0.0
83599,186.072,0.0,0.0
83633,186.241,0.0,0.0
83666,186.457,0.0,0.0
