time,R,G,B
0,252.65,0.0,0.012
39,252.556,0.0,0.014
62,252.228,0.0,0.014
89,252.135,0.0,0.011
120,252.332,0.0,0.012
153,252.379,0.0,0.013
181,252.305,0.0,0.013
227,252.334,0.0,0.009
250,252.224,0.0,0.008
301,252.241,0.0,0.009
325,252.136,0.0,0.006
353,252.135,0.0,0.005
380,252.253,0.0,0.013
431,252.259,0.0,0.009
653,252.191,0.0,0.008
737,252.459,0.0,0.008
757,252.464,0.0,0.012
825,252.53,0.0,0.01
910,252.571,0.0,0.01
960,252.687,0.0,0.008
994,252.288,0.0,0.009
1025,252.086,0.0,0.008
1063,252.271,0.0,0.012
1089,252.262,0.0,0.014
1140,252.203,0.0,0.009
1145,252.23,0.0,0.013
1170,252.212,0.0,0.011
1218,252.238,0.0,0.009
1237,252.289,0.0,0.01
1285,252.292,0.0,0.011
1327,252.188,0.0,0.011
1357,252.184,0.0,0.01
1388,252.098,0.0,0.009
1416,252.113,0.0,0.011
1473,252.18,0.0,0.008
1539,252.24,0.0,0.01
1576,252.254,0.0,0.008
1655,252.467,0.0,0.012
1692,252.38,0.0,0.011
1722,252.38,0.0,0.011
1752,252.509,0.0,0.01
1757,252.524,0.0,0.01
1800,252.14,0.0,0.008
1834,252.158,0.0,0.01
1866,252.439,0.0,0.009
1897,252.444,0.0,0.01
1931,252.397,0.0,0.009
1962,252.387,0.0,0.009
1996,252.415,0.0,0.008
2027,252.423,0.0,0.006
2044,252.342,0.0,0.006
2085,252.367,0.0,0.008
2114,252.544,0.0,0.009
2167,252.394,0.0,0.011
2195,251.968,0.0,0.011
2218,251.833,0.0,0.007
2310,251.715,0.0,0.011
2319,251.73,0.0,0.012
2345,251.79,0.0,0.01
2396,251.803,0.0,0.011
2431,251.786,0.0,0.007
2445,252.113,0.0,0.009
2481,252.129,0.0,0.011
2493,252.096,0.0,0.012
2547,251.909,0.0,0.008
2587,251.901,0.0,0.007
2608,252.188,0.0,0.016
2650,252.195,0.0,0.012
2674,252.055,0.0,0.008
2679,252.078,0.0,0.008
2730,252.113,0.0,0.012
2753,252.106,0.0,0.017
2797,252.089,0.0,0.009
2817,252.085,0.0,0.009
2842,251.941,0.0,0.01
2870,251.954,0.0,0.008
2928,251.98,0.0,0.005
2949,251.995,0.0,0.012
2989,252.097,0.0,0.009
3020,252.093,0.0,0.01
3042,252.216,0.0,0.007
3089,252.215,0.0,0.008
3122,251.922,0.0,0.005
3153,251.912,0.0,0.008
3178,252.001,0.0,0.01
3232,252.011,0.0,0.008
3236,252.028,0.0,0.008
3319,252.038,0.0,0.008
3350,252.309,0.0,0.013
3406,251.903,0.0,0.011
3438,251.769,0.0,0.006
3440,251.79,0.0,0.011
3480,251.628,0.0,0.011
3506,251.7,0.0,0.008
3556,251.712,0.0,0.009
3596,251.633,0.0,0.009
3605,251.641,0.0,0.011
3660,251.869,0.0,0.009
3694,251.909,0.0,0.013
3716,251.609,0.0,0.007
3746,251.608,0.0,0.011
3776,251.607,0.0,0.009
3812,251.596,0.0,0.011
3838,251.746,0.0,0.009
3907,251.49,0.0,0.008
3910,251.532,0.0,0.008
3952,251.534,0.0,0.011
3985,251.912,0.0,0.01
4021,251.909,0.0,0.011
4051,252.024,0.0,0.01
4087,252.029,0.0,0.011
4125,251.892,0.0,0.009
4149,251.905,0.0,0.008
4183,252.001,0.0,0.01
4214,252.02,0.0,0.012
4265,251.818,0.0,0.01
4303,251.819,0.0,0.007
4338,251.745,0.0,0.01
4350,251.744,0.0,0.009
4379,251.564,0.0,0.01
4417,251.579,0.0,0.011
4443,251.554,0.0,0.007
4500,251.405,0.0,0.01
4528,251.525,0.0,0.009
4536,251.405,0.0,0.009
4590,251.201,0.0,0.011
4599,251.219,0.0,0.012
4652,251.464,0.0,0.008
4681,251.475,0.0,0.016
4703,251.181,0.0,0.007
4755,251.313,0.0,0.005
4800,251.299,0.0,0.009
4803,251.301,0.0,0.009
4865,251.283,0.0,0.009
4868,251.283,0.0,0.01
4923,251.366,0.0,0.012
4954,251.38,0.0,0.011
4986,251.425,0.0,0.01
5012,251.437,0.0,0.008
5058,251.291,0.0,0.009
5090,251.288,0.0,0.009
5113,251.477,0.0,0.009
5138,251.479,0.0,0.008
5186,251.578,0.0,0.011
5216,251.584,0.0,0.009
5241,251.532,0.0,0.011
5292,251.53,0.0,0.015
5327,251.577,0.0,0.009
5360,251.584,0.0,0.011
5401,251.403,0.0,0.008
5427,251.412,0.0,0.009
5453,251.58,0.0,0.01
5477,251.601,0.0,0.008
5526,251.624,0.0,0.006
5551,251.606,0.0,0.008
5580,251.393,0.0,0.008
5609,251.116,0.0,0.014
5661,250.757,0.0,0.012
5685,250.677,0.0,0.009
5709,250.914,0.0,0.014
5759,250.928,0.0,0.01
5788,250.87,0.0,0.014
5822,250.882,0.0,0.014
5852,250.955,0.0,0.01
5881,250.981,0.0,0.015
5925,250.877,0.0,0.01
5965,250.851,0.0,0.009
5994,250.387,0.0,0.008
6044,250.389,0.0,0.007
6074,250.868,0.0,0.012
6082,250.875,0.0,0.01
6152,250.719,0.0,0.012
6158,250.736,0.0,0.01
6201,250.611,0.0,0.012
6231,250.61,0.0,0.01
6236,250.836,0.0,0.009
6300,250.839,0.0,0.013
6306,250.807,0.0,0.01
6363,250.802,0.0,0.009
6392,250.644,0.0,0.008
6422,250.678,0.0,0.011
6455,250.902,0.0,0.008
6485,250.916,0.0,0.014
6517,250.74,0.0,0.011
6550,250.752,0.0,0.011
6582,251.013,0.0,0.012
6617,250.999,0.0,0.01
6651,250.656,0.0,0.012
6686,250.645,0.0,0.008
6729,250.683,0.0,0.011
6767,250.762,0.0,0.007
6851,250.553,0.0,0.011
6865,250.053,0.0,0.013
6892,249.885,0.0,0.011
6935,250.02,0.0,0.01
6967,250.007,0.0,0.012
6972,250.091,0.0,0.013
7041,250.06,0.0,0.01
7045,250.072,0.0,0.01
7107,250.085,0.0,0.012
7140,250.071,0.0,0.013
7181,249.915,0.0,0.01
7231,250.025,0.0,0.013
7235,250.011,0.0,0.008
7266,250.038,0.0,0.012
7327,249.709,0.0,0.013
7364,249.737,0.0,0.012
7429,249.786,0.0,0.01
7443,249.801,0.0,0.009
7475,249.832,0.0,0.01
7492,249.819,0.0,0.01
7542,250.013,0.0,0.01
7556,250.022,0.0,0.009
7602,250.027,0.0,0.008
7632,250.028,0.0,0.009
7641,249.942,0.0,0.012
7678,249.951,0.0,0.007
7743,250.017,0.0,0.01
7774,249.928,0.0,0.013
7797,249.931,0.0,0.009
7853,249.816,0.0,0.008
7891,249.959,0.0,0.008
7912,249.972,0.0,0.007
7941,249.969,0.0,0.012
7971,249.923,0.0,0.007
8024,249.607,0.0,0.01
8048,249.396,0.0,0.01
8081,249.298,0.0,0.013
8112,248.99,0.0,0.012
8146,249.007,0.0,0.013
8192,249.543,0.0,0.011
8218,249.472,0.0,0.008
8270,249.52,0.0,0.009
8309,249.527,0.0,0.009
8362,249.006,0.0,0.013
8394,249.16,0.0,0.011
8437,249.156,0.0,0.006
8469,249.373,0.0,0.007
8472,249.286,0.0,0.01
8528,249.328,0.0,0.009
8574,249.346,0.0,0.008
8615,249.534,0.0,0.009
8644,249.578,0.0,0.012
8678,249.594,0.0,0.014
8709,249.404,0.0,0.01
8751,249.415,0.0,0.01
8778,249.218,0.0,0.01
8813,249.23,0.0,0.01
8846,249.106,0.0,0.007
8926,249.473,0.0,0.009
8967,249.501,0.0,0.007
8995,249.86,0.0,0.012
9022,249.882,0.0,0.012
9033,249.34,0.0,0.009
9109,249.092,0.0,0.012
9110,249.002,0.0,0.012
9180,248.842,0.0,0.01
9191,248.984,0.0,0.009
9217,249.029,0.0,0.01
9257,248.849,0.0,0.01
9297,248.864,0.0,0.01
9325,248.813,0.0,0.01
9364,248.818,0.0,0.008
9395,248.707,0.0,0.01
9399,248.642,0.0,0.013
9458,248.782,0.0,0.01
9499,248.778,0.0,0.009
9530,248.878,0.0,0.011
9556,248.88,0.0,0.015
9562,248.906,0.0,0.01
9626,248.953,0.0,0.012
9630,248.752,0.0,0.011
9695,248.765,0.0,0.01
9697,249.18,0.0,0.008
9756,249.189,0.0,0.011
9800,249.122,0.0,0.013
9823,249.136,0.0,0.009
9870,248.709,0.0,0.009
9907,248.727,0.0,0.007
9934,249.21,0.0,0.013
9938,249.472,0.0,0.012
9992,249.497,0.0,0.01
10001,249.495,0.0,0.017
10056,249.194,0.0,0.01
10076,249.213,0.0,0.01
10142,249.186,0.0,0.014
10145,249.307,0.0,0.01
10187,249.211,0.0,0.015
10213,248.887,0.0,0.01
10248,248.328,0.0,0.01
10280,248.215,0.0,0.008
10319,247.966,0.0,0.011
10341,248.016,0.0,0.009
10405,248.071,0.0,0.01
10436,248.062,0.0,0.011
10445,248.657,0.0,0.011
10484,248.68,0.0,0.012
10517,247.993,0.0,0.01
10558,247.958,0.0,0.009
10606,248.007,0.0,0.01
10640,247.992,0.0,0.009
10667,248.614,0.0,0.011
10674,248.638,0.0,0.013
10746,248.448,0.0,0.009
10748,248.482,0.0,0.008
10789,248.396,0.0,0.007
10831,248.404,0.0,0.01
10861,248.243,0.0,0.011
10864,248.263,0.0,0.006
10934,248.486,0.0,0.012
10936,248.503,0.0,0.01
11004,248.626,0.0,0.01
11077,248.365,0.0,0.007
11084,248.374,0.0,0.011
11120,248.694,0.0,0.008
11160,248.713,0.0,0.009
11191,248.797,0.0,0.007
11228,248.519,0.0,0.007
11268,248.525,0.0,0.01
11297,248.813,0.0,0.011
11358,248.83,0.0,0.01
11388,248.717,0.0,0.009
11417,248.486,0.0,0.012
11458,247.901,0.0,0.01
11496,247.692,0.0,0.013
11574,247.823,0.0,0.012
11644,247.818,0.0,0.012
11674,247.463,0.0,0.009
11699,247.528,0.0,0.011
11715,247.865,0.0,0.01
11772,247.863,0.0,0.01
11778,247.842,0.0,0.011
11808,247.852,0.0,0.01
11843,247.653,0.0,0.005
11865,247.653,0.0,0.006
11920,247.853,0.0,0.01
11949,247.815,0.0,0.009
11991,247.843,0.0,0.014
12022,247.874,0.0,0.012
12054,248.1,0.0,0.013
12091,248.106,0.0,0.01
12151,247.772,0.0,0.009
12189,248.128,0.0,0.012
12194,248.13,0.0,0.011
12242,247.72,0.0,0.012
12276,247.733,0.0,0.01
12306,247.844,0.0,0.006
12366,247.85,0.0,0.011
12370,248.242,0.0,0.01
12402,248.254,0.0,0.007
12429,248.187,0.0,0.008
12504,248.21,0.0,0.009
12536,248.157,0.0,0.008
12551,248.174,0.0,0.006
12594,247.481,0.0,0.008
12631,247.142,0.0,0.011
12644,247.206,0.0,0.01
12695,247.191,0.0,0.008
12728,247.478,0.0,0.011
12739,247.493,0.0,0.012
12780,247.691,0.0,0.014
12823,247.757,0.0,0.015
12854,247.482,0.0,0.011
12880,247.489,0.0,0.011
12910,247.708,0.0,0.01
12945,247.709,0.0,0.007
12984,247.529,0.0,0.009
13031,247.528,0.0,0.01
13062,247.245,0.0,0.01
13098,247.296,0.0,0.008
13106,248.034,0.0,0.011
13156,248.076,0.0,0.01
13180,248.08,0.0,0.01
13225,247.692,0.0,0.007
13255,247.716,0.0,0.011
13264,247.73,0.0,0.01
13325,247.991,0.0,0.009
13355,248.003,0.0,0.01
13376,247.639,0.0,0.007
13407,247.685,0.0,0.011
13437,247.679,0.0,0.007
13473,247.709,0.0,0.008
13504,248.136,0.0,0.01
13546,248.182,0.0,0.012
13579,248.326,0.0,0.011
13618,248.341,0.0,0.008
13652,248.076,0.0,0.012
13690,247.733,0.0,0.01
13715,247.809,0.0,0.017
13763,247.75,0.0,0.016
13794,247.206,0.0,0.009
13795,247.245,0.0,0.01
13856,247.265,0.0,0.01
13899,247.287,0.0,0.008
13931,247.755,0.0,0.011
13962,247.783,0.0,0.011
13994,247.932,0.0,0.017
14032,247.891,0.0,0.014
14092,247.44,0.0,0.013
14128,247.582,0.0,0.009
14131,247.622,0.0,0.008
14191,247.486,0.0,0.01
14195,247.487,0.0,0.009
14260,247.727,0.0,0.007
14287,247.741,0.0,0.009
14294,247.566,0.0,0.009
14360,247.774,0.0,0.013
14387,247.798,0.0,0.008
14429,247.807,0.0,0.014
14455,247.98,0.0,0.011
14499,248.026,0.0,0.011
14528,248.288,0.0,0.012
14534,248.291,0.0,0.013
14595,248.08,0.0,0.01
14633,248.136,0.0,0.011
14662,247.921,0.0,0.01
14667,247.961,0.0,0.011
14709,248.005,0.0,0.009
14740,248.013,0.0,0.01
14777,247.835,0.0,0.01
14805,247.476,0.0,0.01
14849,247.599,0.0,0.013
14880,247.563,0.0,0.01
14921,247.341,0.0,0.014
14949,247.349,0.0,0.011
14991,246.993,0.0,0.012
15028,247.028,0.0,0.012
15032,247.525,0.0,0.01
15089,247.557,0.0,0.011
15094,247.019,0.0,0.011
15150,246.996,0.0,0.013
15183,247.511,0.0,0.009
15216,247.513,0.0,0.011
15251,247.478,0.0,0.012
15277,247.512,0.0,0.01
15312,247.445,0.0,0.008
15346,247.488,0.0,0.011
15401,247.616,0.0,0.011
15406,247.625,0.0,0.011
15459,247.574,0.0,0.009
15525,248.083,0.0,0.011
15565,248.083,0.0,0.012
15596,248.019,0.0,0.007
15658,247.508,0.0,0.009
15705,247.531,0.0,0.011
15741,248.205,0.0,0.011
15792,248.281,0.0,0.011
15825,248.319,0.0,0.009
15834,247.856,0.0,0.008
15900,247.893,0.0,0.01
15962,248.439,0.0,0.011
15967,247.753,0.0,0.011
16025,247.526,0.0,0.008
16031,247.336,0.0,0.011
16096,247.162,0.0,0.009
16102,247.865,0.0,0.015
16160,247.879,0.0,0.011
16165,247.258,0.0,0.011
16229,247.255,0.0,0.015
16234,247.269,0.0,0.011
16292,247.302,0.0,0.008
16297,247.447,0.0,0.011
16365,247.438,0.0,0.011
16370,247.328,0.0,0.011
16438,247.324,0.0,0.011
16485,247.415,0.0,0.012
16492,247.452,0.0,0.011
16539,247.543,0.0,0.009
16569,247.561,0.0,0.013
16573,247.571,0.0,0.011
16629,247.593,0.0,0.011
16630,247.891,0.0,0.009
16685,247.92,0.0,0.01
16713,247.867,0.0,0.01
16738,247.529,0.0,0.008
16769,247.567,0.0,0.01
16820,247.581,0.0,0.009
16847,247.844,0.0,0.012
16873,247.865,0.0,0.011
16924,247.673,0.0,0.008
16931,247.71,0.0,0.009
16986,247.757,0.0,0.007
17019,247.781,0.0,0.011
17048,248.536,0.0,0.012
17083,248.549,0.0,0.014
17108,247.898,0.0,0.012
17149,247.638,0.0,0.008
17178,247.562,0.0,0.008
17209,247.463,0.0,0.01
17250,247.325,0.0,0.011
17288,247.374,0.0,0.01
17316,247.668,0.0,0.008
17343,247.551,0.0,0.009
17370,247.615,0.0,0.012
17401,247.645,0.0,0.01
17431,247.411,0.0,0.008
17504,247.528,0.0,0.012
17538,247.546,0.0,0.008
17569,247.679,0.0,0.011
17678,247.87,0.0,0.011
17695,247.914,0.0,0.012
17739,247.447,0.0,0.013
17757,247.483,0.0,0.008
17820,247.594,0.0,0.009
17871,247.626,0.0,0.011
17924,247.677,0.0,0.011
17958,247.704,0.0,0.011
17967,248.373,0.0,0.008
18017,248.401,0.0,0.007
18045,247.811,0.0,0.007
18066,247.843,0.0,0.008
18121,248.325,0.0,0.009
18124,248.368,0.0,0.008
18179,247.958,0.0,0.012
18212,247.965,0.0,0.012
18248,248.101,0.0,0.011
18270,248.137,0.0,0.009
18298,247.926,0.0,0.009
18350,247.901,0.0,0.007
18380,248.287,0.0,0.012
18409,247.958,0.0,0.014
18436,246.848,0.0,0.009
18484,246.842,0.0,0.008
18501,247.636,0.0,0.011
18551,247.641,0.0,0.012
18583,247.249,0.0,0.008
18630,247.289,0.0,0.01
18659,247.574,0.0,0.01
18660,247.582,0.0,0.012
18727,247.556,0.0,0.012
18801,247.738,0.0,0.007
18869,247.787,0.0,0.01
18942,247.799,0.0,0.01
18952,247.823,0.0,0.012
18990,247.687,0.0,0.011
19021,247.719,0.0,0.015
19027,247.464,0.0,0.007
19096,247.45,0.0,0.01
19115,247.903,0.0,0.009
19149,247.891,0.0,0.007
19185,247.486,0.0,0.01
19211,247.501,0.0,0.01
19248,247.767,0.0,0.01
19288,247.807,0.0,0.011
19318,247.875,0.0,0.011
19352,248.048,0.0,0.012
19396,248.069,0.0,0.01
19405,248.076,0.0,0.011
19481,247.914,0.0,0.01
19490,247.925,0.0,0.01
19568,247.899,0.0,0.007
19570,247.916,0.0,0.007
19634,248.317,0.0,0.012
19667,248.257,0.0,0.012
19731,247.588,0.0,0.011
19736,247.279,0.0,0.013
19781,247.12,0.0,0.009
19808,247.16,0.0,0.009
19832,247.32,0.0,0.013
19866,247.339,0.0,0.01
19890,247.614,0.0,0.011
19933,247.291,0.0,0.009
19959,247.326,0.0,0.009
20001,247.345,0.0,0.008
20032,247.594,0.0,0.01
20113,247.578,0.0,0.011
20117,247.58,0.0,0.008
20159,247.608,0.0,0.011
20192,247.617,0.0,0.01
20236,247.662,0.0,0.01
20269,247.772,0.0,0.01
20302,247.588,0.0,0.006
20328,247.627,0.0,0.01
20363,248.033,0.0,0.012
20389,248.045,0.0,0.008
20437,248.001,0.0,0.014
20466,248.029,0.0,0.01
20500,247.981,0.0,0.011
20528,248.009,0.0,0.008
20573,247.718,0.0,0.009
20598,247.748,0.0,0.008
20632,248.159,0.0,0.014
20661,248.195,0.0,0.011
20699,247.695,0.0,0.007
20728,247.734,0.0,0.007
20769,247.71,0.0,0.009
20802,247.743,0.0,0.009
20837,248.451,0.0,0.012
20867,248.446,0.0,0.01
20907,247.847,0.0,0.01
20940,247.504,0.0,0.009
20984,247.673,0.0,0.007
21022,247.648,0.0,0.014
21083,247.578,0.0,0.015
21085,247.61,0.0,0.012
21190,247.576,0.0,0.012
21195,247.491,0.0,0.008
21206,247.459,0.0,0.009
21238,247.721,0.0,0.008
21260,247.685,0.0,0.011
21297,247.644,0.0,0.012
21348,247.673,0.0,0.013
21368,247.606,0.0,0.013
21397,247.629,0.0,0.011
21450,247.423,0.0,0.008
21471,247.449,0.0,0.009
21504,247.681,0.0,0.008
21530,247.703,0.0,0.009
21566,247.796,0.0,0.013
21633,247.811,0.0,0.01
21690,247.612,0.0,0.011
21739,248.153,0.0,0.009
21772,248.002,0.0,0.008
21804,248.037,0.0,0.011
21842,248.059,0.0,0.013
21874,248.086,0.0,0.012
21905,248.028,0.0,0.014
21935,248.071,0.0,0.012
21980,248.081,0.0,0.008
22014,248.094,0.0,0.009
22047,247.866,0.0,0.008
22096,247.526,0.0,0.01
22138,247.456,0.0,0.013
22142,247.39,0.0,0.011
22185,247.5,0.0,0.013
22224,246.742,0.0,0.009
22240,246.742,0.0,0.008
22271,246.729,0.0,0.011
22308,247.101,0.0,0.012
22337,247.097,0.0,0.01
22368,247.416,0.0,0.012
22408,247.38,0.0,0.011
22438,246.843,0.0,0.008
22479,246.884,0.0,0.009
22505,247.45,0.0,0.009
22528,247.487,0.0,0.013
22577,247.205,0.0,0.008
22605,247.211,0.0,0.007
22639,247.586,0.0,0.012
22676,247.602,0.0,0.015
22713,247.425,0.0,0.01
22782,247.421,0.0,0.013
22795,247.336,0.0,0.006
22846,247.616,0.0,0.01
22897,247.639,0.0,0.011
22938,247.448,0.0,0.011
22952,247.479,0.0,0.015
22992,247.976,0.0,0.011
23005,247.985,0.0,0.009
23065,247.884,0.0,0.009
23113,247.437,0.0,0.012
23152,247.457,0.0,0.012
23185,247.411,0.0,0.007
23230,247.408,0.0,0.007
23260,247.273,0.0,0.013
23261,246.877,0.0,0.01
23328,246.41,0.0,0.008
23397,246.787,0.0,0.009
23398,246.795,0.0,0.01
23464,246.439,0.0,0.008
23525,247.043,0.0,0.012
23591,247.019,0.0,0.013
23679,246.375,0.0,0.012
23681,246.374,0.0,0.008
23716,247.155,0.0,0.012
23756,247.163,0.0,0.014
23796,246.66,0.0,0.009
23798,246.659,0.0,0.01
23859,246.492,0.0,0.01
23864,246.503,0.0,0.009
23928,247.298,0.0,0.014
23958,247.317,0.0,0.014
23962,246.777,0.0,0.011
24032,246.801,0.0,0.01
24067,247.103,0.0,0.008
24073,247.134,0.0,0.009
24119,247.265,0.0,0.012
24155,247.432,0.0,0.009
24161,247.428,0.0,0.012
24227,246.808,0.0,0.009
24290,246.817,0.0,0.007
24364,247.258,0.0,0.011
24389,247.387,0.0,0.009
24390,247.376,0.0,0.012
24455,246.864,0.0,0.011
24521,246.458,0.0,0.014
24528,246.468,0.0,0.01
24585,246.577,0.0,0.01
24624,246.746,0.0,0.009
24672,246.349,0.0,0.007
24703,246.407,0.0,0.01
24731,246.426,0.0,0.008
24792,246.568,0.0,0.01
24804,246.581,0.0,0.009
24833,246.92,0.0,0.009
24858,246.948,0.0,0.01
24885,247.077,0.0,0.01
24931,247.122,0.0,0.014
24959,246.766,0.0,0.011
24987,246.813,0.0,0.01
25034,246.866,0.0,0.01
25080,246.893,0.0,0.011
25102,247.065,0.0,0.007
25143,247.081,0.0,0.011
25167,247.504,0.0,0.013
25206,247.537,0.0,0.008
25243,247.032,0.0,0.01
25292,247.04,0.0,0.008
25320,247.568,0.0,0.013
25335,247.605,0.0,0.016
25394,247.45,0.0,0.01
25417,247.202,0.0,0.009
25477,247.391,0.0,0.006
25504,247.277,0.0,0.009
25547,246.925,0.0,0.009
25580,247.045,0.0,0.009
25613,246.953,0.0,0.009
25642,246.743,0.0,0.01
25679,246.799,0.0,0.011
25709,246.678,0.0,0.01
25717,246.725,0.0,0.012
25775,247.314,0.0,0.012
25805,247.35,0.0,0.011
25855,246.855,0.0,0.015
25883,246.841,0.0,0.01
25910,247.188,0.0,0.014
25931,247.202,0.0,0.013
25982,246.562,0.0,0.008
26037,247.051,0.0,0.012
26090,247.084,0.0,0.01
26122,247.164,0.0,0.011
26151,247.189,0.0,0.008
26181,247.468,0.0,0.014
26193,247.478,0.0,0.015
26225,246.964,0.0,0.008
26255,247.004,0.0,0.012
26302,247.369,0.0,0.009
26332,247.41,0.0,0.013
26371,247.38,0.0,0.01
26395,247.41,0.0,0.008
26430,246.88,0.0,0.01
26455,246.913,0.0,0.009
26508,247.395,0.0,0.01
26515,247.426,0.0,0.014
26570,247.204,0.0,0.008
26613,247.223,0.0,0.008
26637,247.463,0.0,0.008
26667,247.12,0.0,0.011
26695,247.075,0.0,0.013
26719,246.436,0.0,0.01
26768,246.451,0.0,0.012
26801,246.46,0.0,0.011
26830,246.543,0.0,0.013
26854,246.535,0.0,0.014
26909,246.519,0.0,0.012
26916,246.803,0.0,0.012
26972,246.828,0.0,0.01
27007,246.805,0.0,0.011
27058,246.906,0.0,0.014
27093,246.917,0.0,0.012
27101,247.078,0.0,0.011
27144,247.124,0.0,0.009
27185,246.55,0.0,0.01
27192,246.593,0.0,0.006
27236,246.813,0.0,0.012
27276,246.831,0.0,0.008
27306,246.915,0.0,0.008
27355,246.933,0.0,0.008
27396,247.479,0.0,0.013
27408,247.479,0.0,0.013
27451,246.646,0.0,0.01
27480,246.632,0.0,0.012
27485,247.232,0.0,0.012
27547,247.267,0.0,0.01
27551,247.024,0.0,0.014
27608,247.045,0.0,0.009
27636,247.23,0.0,0.014
27667,247.267,0.0,0.009
27693,247.348,0.0,0.011
27733,247.388,0.0,0.012
27767,247.142,0.0,0.013
27798,247.098,0.0,0.009
27832,246.63,0.0,0.007
27878,246.433,0.0,0.012
27910,246.219,0.0,0.012
27966,246.187,0.0,0.015
27994,246.382,0.0,0.011
28044,245.899,0.0,0.007
28077,245.95,0.0,0.008
28126,246.108,0.0,0.01
28157,246.127,0.0,0.011
28189,246.28,0.0,0.013
28193,246.254,0.0,0.013
28259,246.522,0.0,0.014
28291,246.546,0.0,0.012
28297,246.373,0.0,0.01
28347,246.436,0.0,0.012
28375,247.0,0.0,0.017
28408,247.013,0.0,0.018
28478,246.628,0.0,0.01
28517,246.275,0.0,0.011
28521,246.3,0.0,0.008
28591,246.018,0.0,0.008
28592,246.039,0.0,0.009
28665,246.787,0.0,0.012
28680,246.815,0.0,0.011
28716,246.4,0.0,0.01
28725,246.436,0.0,0.014
28786,246.656,0.0,0.011
28855,246.858,0.0,0.01
28860,246.903,0.0,0.013
28921,246.855,0.0,0.01
28926,246.703,0.0,0.014
28986,246.235,0.0,0.014
28997,245.955,0.0,0.012
29032,245.732,0.0,0.008
29062,245.759,0.0,0.011
29124,245.665,0.0,0.013
29212,245.61,0.0,0.01
29219,245.657,0.0,0.01
29220,245.767,0.0,0.009
29305,245.749,0.0,0.009
29316,246.253,0.0,0.01
29350,246.268,0.0,0.012
29355,246.109,0.0,0.011
29434,246.145,0.0,0.013
29471,245.542,0.0,0.014
29486,245.594,0.0,0.011
29552,245.826,0.0,0.012
29567,245.88,0.0,0.011
29616,246.711,0.0,0.012
29650,246.305,0.0,0.009
29726,246.278,0.0,0.012
29798,246.653,0.0,0.014
29852,246.658,0.0,0.01
29885,246.658,0.0,0.011
29917,246.431,0.0,0.012
29961,246.46,0.0,0.01
29975,246.604,0.0,0.009
30036,246.021,0.0,0.011
30094,245.728,0.0,0.011
30134,245.74,0.0,0.015
30152,245.771,0.0,0.015
30193,245.753,0.0,0.015
30207,245.775,0.0,0.01
30245,246.24,0.0,0.012
30271,246.303,0.0,0.011
30303,246.077,0.0,0.015
30341,246.091,0.0,0.023
30364,245.786,0.0,0.011
30388,245.746,0.0,0.013
30419,245.477,0.0,0.011
30463,245.495,0.0,0.013
30491,245.665,0.0,0.013
30528,245.824,0.0,0.015
30556,245.859,0.0,0.012
30588,245.886,0.0,0.013
30615,245.545,0.0,0.01
30662,245.588,0.0,0.009
30693,245.66,0.0,0.007
30729,245.668,0.0,0.009
30761,246.026,0.0,0.008
30828,246.029,0.0,0.012
30892,245.902,0.0,0.007
30893,246.079,0.0,0.012
30965,245.958,0.0,0.013
30995,245.991,0.0,0.01
31025,246.206,0.0,0.01
31106,246.445,0.0,0.014
31148,246.384,0.0,0.016
31186,245.997,0.0,0.015
31219,245.402,0.0,0.011
31266,245.404,0.0,0.013
31295,245.032,0.0,0.013
31322,245.015,0.0,0.011
31374,244.716,0.0,0.011
31403,244.726,0.0,0.008
31442,245.568,0.0,0.014
31466,245.216,0.0,0.015
31494,245.227,0.0,0.011
31534,245.2,0.0,0.013
31556,245.556,0.0,0.013
31593,245.594,0.0,0.013
31619,245.279,0.0,0.013
31665,245.294,0.0,0.014
31710,245.036,0.0,0.008
31740,245.365,0.0,0.012
31780,245.377,0.0,0.014
31811,245.406,0.0,0.012
31816,245.209,0.0,0.015
31872,245.217,0.0,0.011
31915,245.763,0.0,0.015
31951,245.488,0.0,0.013
32010,245.535,0.0,0.011
32015,245.637,0.0,0.011
32072,245.669,0.0,0.015
32081,245.458,0.0,0.006
32136,245.476,0.0,0.015
32146,245.619,0.0,0.015
32212,245.691,0.0,0.01
32216,245.781,0.0,0.013
32277,245.702,0.0,0.01
32283,245.462,0.0,0.013
32341,245.093,0.0,0.01
32346,244.68,0.0,0.01
32408,244.691,0.0,0.012
32413,244.609,0.0,0.012
32469,244.65,0.0,0.012
32502,244.749,0.0,0.011
32533,244.792,0.0,0.012
32560,244.606,0.0,0.008
32608,244.596,0.0,0.013
32639,244.798,0.0,0.011
32680,244.787,0.0,0.015
32708,244.786,0.0,0.011
32712,244.819,0.0,0.012
32767,244.688,0.0,0.011
32796,244.715,0.0,0.01
32824,244.721,0.0,0.013
32853,244.741,0.0,0.011
32909,245.347,0.0,0.013
32916,245.384,0.0,0.01
32979,245.049,0.0,0.01
32983,245.085,0.0,0.011
33042,245.263,0.0,0.02
33047,245.238,0.0,0.015
33106,245.372,0.0,0.012
33145,245.409,0.0,0.01
33172,245.457,0.0,0.011
33198,245.522,0.0,0.013
33227,245.275,0.0,0.009
33271,245.255,0.0,0.009
33292,245.014,0.0,0.014
33330,244.554,0.0,0.011
33363,244.627,0.0,0.016
33396,244.608,0.0,0.016
33422,244.565,0.0,0.012
33474,244.575,0.0,0.014
33482,244.577,0.0,0.012
33536,244.626,0.0,0.012
33562,244.091,0.0,0.009
33587,244.139,0.0,0.009
33644,245.061,0.0,0.013
33705,244.533,0.0,0.01
33732,244.55,0.0,0.013
33760,244.212,0.0,0.011
33787,244.259,0.0,0.011
33846,244.455,0.0,0.01
33852,244.519,0.0,0.009
33920,244.423,0.0,0.01
33927,244.446,0.0,0.014
34011,244.884,0.0,0.013
34049,244.599,0.0,0.01
34064,244.596,0.0,0.01
34115,244.936,0.0,0.013
34149,244.938,0.0,0.011
34160,244.968,0.0,0.012
34202,245.007,0.0,0.013
34247,245.591,0.0,0.014
34292,245.583,0.0,0.014
34297,244.774,0.0,0.016
34338,244.311,0.0,0.011
34377,243.762,0.0,0.012
34434,244.016,0.0,0.013
34470,244.018,0.0,0.016
34505,243.568,0.0,0.013
34531,244.359,0.0,0.017
34575,244.427,0.0,0.016
34608,243.877,0.0,0.012
34616,243.861,0.0,0.016
34687,243.845,0.0,0.013
34692,244.135,0.0,0.013
34726,244.18,0.0,0.012
34750,244.286,0.0,0.015
34811,244.297,0.0,0.015
34852,244.106,0.0,0.013
34885,243.727,0.0,0.011
34957,243.739,0.0,0.009
34994,244.259,0.0,0.012
34999,244.278,0.0,0.011
35042,244.413,0.0,0.011
35077,244.202,0.0,0.012
35114,244.231,0.0,0.012
35151,244.488,0.0,0.018
35156,244.527,0.0,0.014
35242,244.56,0.0,0.013
35248,244.295,0.0,0.014
35252,244.338,0.0,0.012
35301,244.388,0.0,0.012
35352,244.37,0.0,0.011
35377,244.668,0.0,0.016
35427,243.687,0.0,0.013
35459,243.652,0.0,0.017
35490,243.002,0.0,0.017
35519,242.992,0.0,0.012
35544,243.401,0.0,0.016
35598,243.442,0.0,0.015
35624,244.083,0.0,0.014
35677,244.095,0.0,0.014
35700,243.145,0.0,0.013
35708,243.136,0.0,0.011
35760,243.419,0.0,0.017
35800,243.428,0.0,0.017
35831,243.532,0.0,0.01
35844,243.612,0.0,0.014
35916,243.339,0.0,0.01
35922,243.388,0.0,0.013
36005,243.821,0.0,0.014
36015,243.848,0.0,0.011
36107,243.545,0.0,0.013
36114,243.873,0.0,0.012
36155,243.536,0.0,0.011
36253,243.687,0.0,0.012
36257,243.782,0.0,0.011
36269,243.804,0.0,0.011
36314,244.181,0.0,0.016
36374,243.619,0.0,0.016
36380,243.252,0.0,0.016
36436,243.074,0.0,0.011
36441,243.077,0.0,0.014
36508,243.182,0.0,0.012
36511,243.226,0.0,0.015
36566,243.601,0.0,0.013
36611,243.722,0.0,0.011
36638,243.394,0.0,0.01
36689,242.983,0.0,0.008
36720,242.965,0.0,0.01
36721,243.01,0.0,0.008
36761,242.848,0.0,0.014
36791,242.88,0.0,0.015
36828,243.752,0.0,0.013
36854,243.809,0.0,0.011
36900,243.997,0.0,0.012
36936,244.039,0.0,0.013
36944,243.807,0.0,0.015
37019,243.847,0.0,0.012
37039,243.964,0.0,0.012
37102,243.939,0.0,0.011
37146,243.967,0.0,0.011
37178,244.213,0.0,0.01
37185,244.263,0.0,0.012
37234,244.481,0.0,0.011
37276,244.546,0.0,0.011
37278,244.333,0.0,0.015
37342,244.103,0.0,0.014
37347,244.242,0.0,0.018
37403,243.936,0.0,0.021
37410,243.667,0.0,0.015
37475,243.709,0.0,0.017
37480,243.153,0.0,0.01
37549,242.897,0.0,0.01
37555,242.93,0.0,0.011
37586,243.046,0.0,0.011
37634,242.903,0.0,0.012
37670,242.886,0.0,0.011
37703,242.892,0.0,0.014
37758,242.929,0.0,0.011
37790,243.863,0.0,0.017
37836,243.534,0.0,0.01
37870,243.573,0.0,0.011
37876,243.857,0.0,0.011
37949,243.897,0.0,0.011
37954,243.732,0.0,0.012
37992,243.765,0.0,0.016
38035,244.008,0.0,0.013
38064,244.041,0.0,0.016
38088,244.237,0.0,0.016
38130,244.28,0.0,0.011
38155,244.061,0.0,0.01
38195,244.13,0.0,0.011
38234,244.068,0.0,0.015
38258,244.13,0.0,0.014
38288,243.696,0.0,0.013
38319,243.754,0.0,0.011
38371,243.947,0.0,0.012
38381,244.719,0.0,0.01
38439,244.766,0.0,0.011
38443,244.836,0.0,0.013
38507,244.659,0.0,0.012
38513,244.723,0.0,0.01
38573,244.966,0.0,0.016
38576,244.816,0.0,0.019
38638,243.956,0.0,0.01
38642,243.581,0.0,0.011
38702,243.431,0.0,0.014
38745,243.471,0.0,0.01
38772,244.047,0.0,0.015
38812,244.041,0.0,0.014
38839,243.828,0.0,0.012
38848,243.907,0.0,0.011
38911,244.442,0.0,0.015
38936,243.97,0.0,0.016
38966,243.967,0.0,0.019
38996,243.959,0.0,0.015
39034,244.187,0.0,0.013
39069,244.255,0.0,0.012
39102,243.984,0.0,0.014
39127,244.033,0.0,0.02
39156,244.373,0.0,0.014
39197,244.423,0.0,0.014
39231,244.441,0.0,0.014
39258,244.461,0.0,0.015
39297,243.952,0.0,0.012
39330,243.989,0.0,0.009
39356,244.475,0.0,0.01
39379,244.525,0.0,0.012
39433,244.508,0.0,0.011
39465,244.555,0.0,0.013
39490,244.193,0.0,0.012
39520,244.265,0.0,0.011
39572,244.603,0.0,0.011
39576,244.623,0.0,0.014
39633,244.709,0.0,0.015
39662,244.716,0.0,0.012
39688,245.12,0.0,0.009
39711,245.17,0.0,0.014
39767,244.483,0.0,0.009
39792,244.479,0.0,0.011
39906,244.615,0.0,0.012
39962,244.483,0.0,0.012
40002,244.259,0.0,0.013
40076,244.048,0.0,0.01
40179,244.24,0.0,0.012
40189,244.16,0.0,0.011
40193,244.167,0.0,0.012
40251,244.516,0.0,0.015
40305,244.054,0.0,0.01
40338,244.095,0.0,0.014
40351,244.863,0.0,0.011
40413,244.929,0.0,0.008
40453,244.923,0.0,0.013
40466,245.347,0.0,0.015
40512,245.378,0.0,0.015
40542,245.42,0.0,0.013
40549,244.502,0.0,0.013
40628,244.745,0.0,0.008
40637,244.802,0.0,0.01
40671,244.846,0.0,0.011
40705,244.848,0.0,0.011
40711,244.875,0.0,0.013
40792,245.369,0.0,0.013
40799,245.446,0.0,0.014
40843,245.185,0.0,0.015
40877,245.548,0.0,0.01
40882,245.261,0.0,0.01
40974,244.955,0.0,0.011
40984,244.831,0.0,0.014
40985,244.879,0.0,0.015
41061,244.835,0.0,0.011
41098,244.822,0.0,0.017
41127,244.899,0.0,0.012
41166,244.5,0.0,0.011
41203,244.495,0.0,0.008
41237,244.8,0.0,0.009
41261,244.785,0.0,0.011
41269,244.864,0.0,0.013
41333,244.96,0.0,0.011
41335,244.97,0.0,0.012
41396,245.012,0.0,0.012
41407,245.066,0.0,0.011
41469,245.132,0.0,0.012
41499,244.758,0.0,0.012
41531,244.791,0.0,0.011
41555,245.011,0.0,0.013
41589,245.057,0.0,0.013
41613,245.055,0.0,0.012
41640,245.098,0.0,0.01
41697,245.078,0.0,0.011
41723,245.122,0.0,0.01
41766,245.333,0.0,0.012
41796,244.989,0.0,0.009
41839,244.411,0.0,0.008
41870,244.273,0.0,0.01
41910,244.511,0.0,0.009
41948,244.548,0.0,0.011
42028,244.766,0.0,0.01
42038,244.809,0.0,0.011
42103,245.006,0.0,0.01
42108,244.986,0.0,0.015
42174,245.117,0.0,0.012
42210,245.164,0.0,0.009
42212,244.644,0.0,0.015
42248,244.643,0.0,0.009
42271,245.243,0.0,0.009
42334,245.321,0.0,0.01
42339,245.329,0.0,0.012
42393,245.358,0.0,0.012
42438,245.022,0.0,0.01
42473,245.054,0.0,0.012
42530,245.182,0.0,0.012
42554,245.287,0.0,0.011
42583,245.318,0.0,0.014
42608,245.318,0.0,0.011
42667,245.355,0.0,0.014
42710,244.782,0.0,0.01
42750,244.728,0.0,0.01
42832,244.279,0.0,0.013
42839,243.999,0.0,0.011
42903,243.821,0.0,0.009
42909,243.829,0.0,0.011
42974,244.139,0.0,0.013
42978,244.209,0.0,0.011
43010,244.015,0.0,0.011
43072,244.069,0.0,0.01
43077,244.707,0.0,0.015
43110,244.691,0.0,0.013
43163,244.607,0.0,0.012
43177,244.905,0.0,0.015
43262,244.942,0.0,0.013
43275,244.992,0.0,0.014
43311,244.629,0.0,0.01
43330,244.661,0.0,0.012
43381,245.121,0.0,0.013
43417,245.169,0.0,0.013
43433,244.846,0.0,0.014
43493,244.869,0.0,0.011
43541,244.373,0.0,0.012
43573,245.343,0.0,0.012
43603,245.385,0.0,0.013
43608,244.615,0.0,0.01
43653,244.676,0.0,0.011
43684,244.931,0.0,0.009
43706,244.993,0.0,0.009
43761,245.255,0.0,0.014
43772,245.144,0.0,0.014
43838,244.886,0.0,0.01
43843,244.55,0.0,0.014
43908,244.042,0.0,0.013
43916,244.085,0.0,0.012
43953,243.625,0.0,0.011
43996,243.632,0.0,0.011
44023,244.787,0.0,0.01
44074,244.875,0.0,0.015
44105,244.678,0.0,0.013
44110,244.718,0.0,0.011
44177,244.564,0.0,0.019
44184,244.54,0.0,0.02
44220,244.349,0.0,0.016
44255,244.396,0.0,0.015
44281,245.049,0.0,0.015
44325,244.287,0.0,0.013
44353,244.327,0.0,0.012
44396,244.359,0.0,0.011
44425,244.804,0.0,0.017
44454,244.819,0.0,0.013
44497,244.858,0.0,0.012
44528,244.901,0.0,0.011
44564,245.176,0.0,0.01
44614,245.216,0.0,0.013
44652,244.949,0.0,0.011
44685,245.013,0.0,0.014
44691,244.992,0.0,0.012
44735,245.039,0.0,0.014
44764,245.401,0.0,0.014
44811,245.13,0.0,0.015
44842,244.815,0.0,0.014
44911,244.427,0.0,0.011
44915,244.483,0.0,0.012
44950,243.751,0.0,0.012
44985,243.859,0.0,0.01
45033,244.508,0.0,0.013
45063,244.665,0.0,0.009
45076,244.658,0.0,0.013
45141,244.64,0.0,0.011
45150,244.173,0.0,0.012
45186,244.197,0.0,0.014
45227,244.847,0.0,0.012
45251,244.923,0.0,0.015
45288,244.552,0.0,0.014
45314,244.593,0.0,0.01
45364,245.081,0.0,0.01
45390,245.111,0.0,0.011
45408,244.773,0.0,0.013
45470,244.769,0.0,0.012
45471,244.708,0.0,0.011
45546,245.078,0.0,0.012
45547,245.098,0.0,0.01
45620,245.135,0.0,0.014
45629,244.914,0.0,0.011
45678,244.955,0.0,0.011
45713,244.662,0.0,0.009
45714,244.841,0.0,0.01
45784,244.478,0.0,0.01
45817,244.307,0.0,0.011
45869,244.436,0.0,0.014
45903,244.159,0.0,0.013
45909,244.191,0.0,0.012
45988,244.4,0.0,0.016
46004,244.463,0.0,0.014
46051,244.252,0.0,0.013
46069,244.247,0.0,0.011
46105,244.713,0.0,0.014
46120,244.743,0.0,0.015
46167,244.654,0.0,0.01
46201,244.71,0.0,0.013
46233,244.564,0.0,0.009
46268,244.603,0.0,0.013
46320,244.547,0.0,0.01
46351,244.801,0.0,0.012
46358,244.817,0.0,0.011
46392,244.862,0.0,0.01
46420,244.764,0.0,0.012
46461,244.817,0.0,0.016
46486,244.869,0.0,0.012
46515,244.885,0.0,0.012
46540,244.766,0.0,0.01
46578,244.816,0.0,0.008
46607,245.149,0.0,0.016
46646,245.174,0.0,0.01
46677,245.137,0.0,0.013
46716,245.353,0.0,0.014
46742,245.37,0.0,0.012
46816,245.399,0.0,0.012
46882,245.428,0.0,0.013
46947,245.596,0.0,0.009
46988,244.718,0.0,0.009
47018,244.409,0.0,0.016
47053,244.35,0.0,0.01
47111,244.537,0.0,0.014
47116,244.566,0.0,0.017
47155,243.974,0.0,0.011
47184,243.996,0.0,0.013
47221,244.258,0.0,0.011
47268,244.286,0.0,0.009
47306,244.212,0.0,0.009
47335,244.215,0.0,0.01
47339,244.876,0.0,0.016
47374,244.903,0.0,0.014
47405,244.512,0.0,0.011
47438,244.583,0.0,0.009
47466,244.654,0.0,0.01
47519,244.695,0.0,0.011
47548,244.698,0.0,0.012
47579,244.743,0.0,0.012
47603,244.634,0.0,0.011
47651,244.666,0.0,0.013
47684,244.641,0.0,0.015
47714,244.655,0.0,0.009
47738,245.075,0.0,0.008
47778,245.13,0.0,0.011
47806,245.145,0.0,0.011
47889,245.25,0.0,0.012
47919,245.288,0.0,0.011
47965,245.037,0.0,0.013
47995,245.607,0.0,0.017
48004,245.643,0.0,0.011
48069,245.668,0.0,0.013
48074,245.06,0.0,0.012
48132,245.109,0.0,0.011
48159,245.204,0.0,0.01
48201,244.769,0.0,0.013
48229,244.373,0.0,0.01
48233,244.256,0.0,0.013
48282,243.954,0.0,0.014
48312,244.033,0.0,0.01
48337,244.294,0.0,0.014
48382,244.323,0.0,0.015
48412,244.182,0.0,0.012
48438,244.286,0.0,0.009
48483,244.853,0.0,0.015
48512,244.829,0.0,0.012
48534,244.576,0.0,0.01
48583,244.539,0.0,0.01
48613,244.59,0.0,0.011
48635,244.598,0.0,0.012
48684,244.38,0.0,0.008
48715,244.423,0.0,0.011
48750,244.8,0.0,0.011
48786,244.237,0.0,0.008
48815,244.285,0.0,0.01
48853,244.301,0.0,0.009
48879,245.09,0.0,0.007
48914,244.508,0.0,0.009
48938,244.521,0.0,0.009
48991,245.113,0.0,0.013
48999,245.163,0.0,0.009
49060,245.225,0.0,0.008
49066,245.126,0.0,0.013
49140,245.105,0.0,0.013
49144,244.214,0.0,0.01
49191,243.793,0.0,0.012
49214,244.182,0.0,0.011
49255,244.138,0.0,0.015
49306,244.032,0.0,0.011
49339,244.03,0.0,0.01
49374,244.999,0.0,0.015
49425,245.093,0.0,0.018
49438,243.69,0.0,0.012
49472,243.687,0.0,0.011
49481,244.207,0.0,0.012
49525,244.162,0.0,0.013
49559,244.02,0.0,0.009
49606,244.058,0.0,0.012
49617,244.433,0.0,0.012
49662,244.469,0.0,0.01
49692,244.511,0.0,0.008
49711,244.547,0.0,0.012
49764,244.854,0.0,0.013
49776,244.881,0.0,0.013
49826,244.602,0.0,0.013
49868,244.637,0.0,0.011
49896,244.6,0.0,0.013
49959,244.88,0.0,0.01
49984,244.937,0.0,0.012
50008,244.735,0.0,0.015
50060,244.377,0.0,0.01
50105,243.892,0.0,0.009
50130,243.646,0.0,0.015
50151,243.487,0.0,0.01
50185,243.47,0.0,0.013
50214,243.019,0.0,0.012
50244,243.021,0.0,0.012
50310,244.002,0.0,0.014
50315,244.075,0.0,0.013
50361,243.636,0.0,0.012
50390,243.592,0.0,0.01
50426,243.524,0.0,0.014
50459,243.546,0.0,0.014
50494,243.888,0.0,0.014
50522,243.919,0.0,0.015
50542,243.36,0.0,0.01
50594,243.393,0.0,0.016
50595,243.577,0.0,0.013
50646,243.596,0.0,0.009
50677,244.202,0.0,0.016
50738,244.235,0.0,0.013
50740,243.959,0.0,0.015
50798,243.99,0.0,0.015
50847,243.595,0.0,0.009
50887,243.643,0.0,0.014
50902,244.14,0.0,0.012
50935,244.172,0.0,0.013
50939,244.423,0.0,0.012
50998,244.483,0.0,0.016
51002,244.38,0.0,0.01
51076,244.364,0.0,0.016
51091,243.955,0.0,0.016
51133,243.489,0.0,0.01
51167,242.65,0.0,0.011
51173,242.58,0.0,0.014
51251,242.934,0.0,0.012
51263,242.892,0.0,0.016
51289,243.33,0.0,0.013
51326,243.386,0.0,0.016
51353,243.152,0.0,0.012
51389,243.148,0.0,0.012
51412,242.734,0.0,0.011
51439,242.723,0.0,0.013
51489,243.346,0.0,0.015
51517,243.283,0.0,0.011
51545,243.298,0.0,0.016
51580,243.342,0.0,0.013
51629,243.58,0.0,0.013
51653,243.639,0.0,0.011
51675,243.121,0.0,0.01
51704,243.146,0.0,0.011
51736,243.779,0.0,0.012
51767,243.803,0.0,0.015
51797,243.372,0.0,0.013
51846,243.423,0.0,0.014
51878,243.416,0.0,0.014
51909,243.466,0.0,0.013
51939,243.826,0.0,0.011
51973,243.887,0.0,0.013
52000,243.796,0.0,0.01
52059,243.847,0.0,0.01
52088,244.1,0.0,0.012
52127,243.738,0.0,0.012
52153,243.489,0.0,0.016
52162,243.341,0.0,0.019
52218,242.755,0.0,0.014
52259,242.781,0.0,0.016
52289,242.715,0.0,0.012
52296,242.749,0.0,0.015
52361,242.647,0.0,0.014
52374,242.758,0.0,0.011
52402,242.783,0.0,0.01
52477,242.786,0.0,0.013
52478,243.455,0.0,0.014
52512,243.479,0.0,0.019
52546,243.289,0.0,0.015
52589,243.343,0.0,0.01
52621,242.963,0.0,0.012
52629,243.02,0.0,0.009
52700,243.288,0.0,0.013
52705,243.333,0.0,0.009
52748,243.636,0.0,0.015
52798,243.66,0.0,0.015
52863,243.675,0.0,0.015
52869,243.682,0.0,0.011
52906,243.756,0.0,0.011
52951,243.334,0.0,0.015
52984,243.195,0.0,0.01
53010,243.177,0.0,0.012
53051,242.908,0.0,0.016
53078,242.973,0.0,0.012
53111,242.982,0.0,0.013
53188,242.979,0.0,0.009
53195,242.889,0.0,0.014
53258,243.0,0.0,0.014
53262,243.283,0.0,0.014
53322,243.287,0.0,0.016
53327,243.276,0.0,0.013
53406,243.291,0.0,0.017
53422,242.971,0.0,0.013
53455,243.494,0.0,0.018
53486,243.556,0.0,0.015
53560,243.627,0.0,0.016
53604,242.982,0.0,0.01
53623,243.595,0.0,0.012
53672,243.672,0.0,0.015
53710,243.771,0.0,0.015
53727,243.842,0.0,0.011
53762,244.39,0.0,0.016
53776,244.444,0.0,0.021
53826,243.599,0.0,0.012
53869,243.643,0.0,0.011
53902,244.244,0.0,0.01
53903,244.318,0.0,0.009
53940,244.329,0.0,0.009
53963,244.387,0.0,0.013
54012,244.174,0.0,0.012
54042,244.244,0.0,0.012
54067,244.609,0.0,0.014
54108,244.676,0.0,0.014
54132,244.415,0.0,0.009
54187,244.335,0.0,0.013
54228,244.399,0.0,0.016
54254,243.862,0.0,0.012
54261,243.754,0.0,0.017
54327,243.816,0.0,0.015
54362,244.075,0.0,0.018
54392,244.072,0.0,0.015
54398,243.715,0.0,0.011
54456,243.848,0.0,0.011
54464,244.47,0.0,0.014
54525,244.464,0.0,0.012
54535,244.575,0.0,0.012
54589,244.626,0.0,0.017
54596,243.745,0.0,0.013
54650,243.792,0.0,0.013
54678,244.455,0.0,0.012
54711,244.498,0.0,0.013
54736,244.444,0.0,0.013
54777,244.563,0.0,0.016
54813,244.595,0.0,0.009
54849,244.636,0.0,0.015
54876,243.912,0.0,0.011
54912,245.039,0.0,0.014
54947,245.069,0.0,0.015
54972,245.144,0.0,0.015
55016,244.742,0.0,0.01
55061,244.818,0.0,0.011
55094,244.917,0.0,0.014
55118,244.966,0.0,0.01
55148,245.49,0.0,0.015
55179,245.542,0.0,0.011
55213,244.84,0.0,0.01
55246,244.523,0.0,0.012
55278,244.121,0.0,0.012
55311,243.967,0.0,0.017
55349,244.125,0.0,0.014
55388,244.175,0.0,0.012
55417,244.05,0.0,0.014
55454,244.125,0.0,0.012
55479,244.417,0.0,0.009
55556,244.532,0.0,0.008
55561,244.436,0.0,0.01
55585,244.396,0.0,0.008
55613,243.936,0.0,0.01
55643,243.973,0.0,0.009
55667,244.75,0.0,0.01
55714,244.821,0.0,0.013
55744,244.85,0.0,0.008
55777,244.899,0.0,0.009
55803,244.828,0.0,0.014
55860,244.897,0.0,0.012
55865,244.706,0.0,0.009
55931,244.724,0.0,0.012
55938,244.777,0.0,0.013
55996,244.797,0.0,0.012
56000,244.861,0.0,0.01
56063,244.913,0.0,0.012
56070,245.449,0.0,0.015
56132,245.519,0.0,0.011
56136,245.654,0.0,0.018
56199,245.71,0.0,0.018
56204,245.51,0.0,0.012
56263,245.529,0.0,0.012
56267,245.242,0.0,0.011
56328,244.824,0.0,0.012
56332,244.524,0.0,0.019
56392,244.414,0.0,0.015
56396,244.388,0.0,0.014
56456,244.453,0.0,0.012
56497,244.218,0.0,0.01
56522,244.268,0.0,0.011
56536,244.519,0.0,0.007
56588,244.571,0.0,0.009
56630,244.625,0.0,0.013
56656,244.628,0.0,0.011
56709,244.966,0.0,0.015
56752,244.996,0.0,0.011
56762,244.584,0.0,0.014
56798,244.666,0.0,0.012
56803,244.791,0.0,0.013
56888,244.837,0.0,0.012
56892,244.489,0.0,0.009
56941,244.96,0.0,0.01
57018,244.955,0.0,0.011
57026,245.031,0.0,0.012
57070,244.972,0.0,0.012
57149,245.011,0.0,0.011
57160,245.174,0.0,0.014
57195,245.196,0.0,0.01
57271,245.852,0.0,0.016
57272,245.513,0.0,0.013
57332,245.53,0.0,0.017
57399,244.614,0.0,0.008
57403,244.744,0.0,0.013
57470,244.664,0.0,0.017
57497,244.215,0.0,0.016
57500,244.26,0.0,0.01
57564,244.849,0.0,0.015
57566,244.87,0.0,0.017
57643,244.452,0.0,0.015
57649,244.528,0.0,0.015
57689,244.232,0.0,0.01
57724,244.19,0.0,0.015
57753,243.882,0.0,0.011
57787,243.912,0.0,0.012
57824,244.357,0.0,0.01
57863,244.412,0.0,0.009
57944,244.155,0.0,0.011
57958,244.94,0.0,0.017
57993,244.966,0.0,0.018
58027,244.857,0.0,0.016
58060,244.861,0.0,0.01
58065,244.851,0.0,0.014
58137,244.859,0.0,0.015
58222,244.629,0.0,0.012
58264,244.673,0.0,0.015
58306,245.071,0.0,0.013
58320,245.096,0.0,0.012
58365,245.232,0.0,0.019
58403,244.81,0.0,0.019
58492,244.182,0.0,0.016
58504,244.177,0.0,0.01
58554,243.604,0.0,0.009
58601,243.648,0.0,0.011
58633,244.019,0.0,0.013
58641,244.079,0.0,0.01
58727,244.192,0.0,0.013
58733,244.694,0.0,0.013
58771,244.732,0.0,0.018
58842,244.309,0.0,0.011
58850,244.343,0.0,0.013
58887,244.431,0.0,0.018
58898,244.468,0.0,0.013
58937,244.593,0.0,0.014
58975,244.601,0.0,0.011
59007,244.489,0.0,0.011
59042,244.471,0.0,0.015
59073,244.695,0.0,0.012
59111,244.732,0.0,0.013
59142,244.269,0.0,0.012
59174,244.305,0.0,0.011
59217,244.339,0.0,0.01
59256,244.762,0.0,0.013
59328,244.716,0.0,0.009
59391,244.273,0.0,0.012
59396,243.971,0.0,0.012
59457,243.985,0.0,0.012
59495,243.872,0.0,0.012
59526,243.94,0.0,0.013
59554,243.917,0.0,0.018
59592,244.013,0.0,0.014
59617,244.211,0.0,0.011
59624,244.664,0.0,0.019
59704,244.616,0.0,0.021
59719,244.617,0.0,0.014
59750,244.241,0.0,0.014
59798,244.269,0.0,0.015
59811,244.773,0.0,0.013
59862,244.827,0.0,0.016
59898,244.293,0.0,0.012
59908,244.325,0.0,0.009
59959,244.406,0.0,0.011
60004,244.394,0.0,0.016
60036,244.815,0.0,0.013
60041,244.881,0.0,0.013
60084,244.883,0.0,0.015
60123,244.903,0.0,0.014
60166,244.585,0.0,0.011
60201,244.559,0.0,0.01
60214,244.693,0.0,0.013
60248,244.366,0.0,0.017
60280,243.75,0.0,0.013
60316,243.765,0.0,0.012
60355,243.996,0.0,0.012
60386,244.463,0.0,0.013
60431,244.525,0.0,0.014
60457,244.659,0.0,0.012
60487,244.264,0.0,0.012
60494,244.284,0.0,0.013
60552,244.265,0.0,0.014
60584,244.279,0.0,0.015
60619,244.005,0.0,0.01
60651,244.019,0.0,0.01
60660,244.113,0.0,0.014
60714,244.178,0.0,0.012
60729,244.41,0.0,0.01
60785,244.447,0.0,0.011
60789,244.78,0.0,0.012
60846,244.788,0.0,0.012
60879,244.837,0.0,0.012
60907,244.879,0.0,0.014
60930,244.461,0.0,0.011
60976,244.52,0.0,0.01
61010,245.142,0.0,0.012
61041,245.114,0.0,0.013
61065,244.918,0.0,0.015
61115,244.527,0.0,0.016
61147,244.3,0.0,0.015
61195,244.301,0.0,0.016
61223,244.648,0.0,0.016
61226,244.657,0.0,0.015
61298,244.249,0.0,0.012
61304,244.317,0.0,0.014
61334,243.976,0.0,0.013
61394,243.949,0.0,0.013
61455,244.203,0.0,0.01
61462,244.499,0.0,0.016
61520,244.525,0.0,0.013
61524,244.122,0.0,0.01
61592,244.161,0.0,0.012
61667,244.353,0.0,0.013
61671,245.147,0.0,0.015
61743,245.164,0.0,0.014
61744,244.056,0.0,0.011
61791,244.084,0.0,0.011
61831,244.59,0.0,0.015
61857,244.586,0.0,0.013
61894,244.868,0.0,0.015
61925,244.92,0.0,0.009
61926,244.704,0.0,0.012
62005,244.759,0.0,0.014
62020,245.015,0.0,0.016
62061,245.08,0.0,0.015
62068,244.968,0.0,0.013
62135,244.944,0.0,0.014
62171,244.642,0.0,0.011
62176,244.211,0.0,0.014
62220,244.075,0.0,0.015
62254,244.051,0.0,0.011
62278,244.437,0.0,0.012
62314,244.416,0.0,0.014
62348,243.816,0.0,0.012
62382,243.878,0.0,0.013
62423,244.159,0.0,0.016
62456,244.191,0.0,0.01
62465,244.15,0.0,0.013
62532,244.126,0.0,0.013
62616,244.16,0.0,0.013
62624,244.506,0.0,0.009
62661,244.344,0.0,0.014
62748,244.412,0.0,0.012
62757,244.108,0.0,0.011
62796,244.133,0.0,0.012
62797,244.465,0.0,0.013
62892,244.484,0.0,0.01
62898,244.314,0.0,0.011
62988,244.987,0.0,0.014
62993,245.061,0.0,0.015
63037,244.088,0.0,0.012
63041,244.152,0.0,0.007
63092,244.63,0.0,0.01
63130,244.785,0.0,0.013
63184,244.803,0.0,0.012
63229,244.809,0.0,0.013
63323,245.171,0.0,0.012
63327,244.546,0.0,0.01
63416,244.323,0.0,0.013
63460,243.883,0.0,0.014
63492,243.832,0.0,0.011
63498,243.831,0.0,0.014
63570,243.709,0.0,0.012
63573,243.701,0.0,0.011
63635,243.625,0.0,0.012
63636,243.678,0.0,0.008
63719,244.09,0.0,0.013
63726,244.055,0.0,0.015
63767,244.099,0.0,0.012
63869,244.276,0.0,0.011
63887,243.743,0.0,0.011
63922,243.738,0.0,0.011
63936,244.279,0.0,0.017
64042,244.307,0.0,0.012
64048,244.587,0.0,0.014
64063,244.617,0.0,0.01
64126,244.361,0.0,0.014
64143,244.822,0.0,0.016
64185,244.851,0.0,0.014
64199,244.066,0.0,0.013
64232,244.113,0.0,0.008
64273,244.316,0.0,0.007
64312,244.334,0.0,0.014
64347,244.151,0.0,0.01
64375,244.186,0.0,0.013
64415,244.123,0.0,0.008
64450,244.16,0.0,0.009
64492,244.778,0.0,0.013
64493,244.825,0.0,0.009
64579,244.791,0.0,0.012
64581,244.689,0.0,0.013
64626,244.659,0.0,0.009
64660,244.319,0.0,0.011
64661,243.887,0.0,0.012
64732,243.977,0.0,0.015
64763,243.902,0.0,0.011
64798,243.952,0.0,0.013
64800,243.958,0.0,0.011
64865,244.051,0.0,0.015
64875,244.549,0.0,0.013
64909,244.509,0.0,0.011
64945,244.062,0.0,0.013
64983,244.041,0.0,0.013
65015,243.67,0.0,0.01
65046,243.727,0.0,0.008
65079,244.207,0.0,0.008
65120,244.275,0.0,0.008
65148,243.932,0.0,0.01
65178,243.99,0.0,0.011
65211,244.27,0.0,0.012
65238,244.312,0.0,0.01
65263,244.742,0.0,0.013
65296,244.773,0.0,0.01
65323,245.146,0.0,0.013
65396,245.164,0.0,0.014
65461,245.133,0.0,0.01
65467,245.182,0.0,0.013
65502,245.24,0.0,0.019
65527,245.096,0.0,0.012
65559,244.993,0.0,0.017
65611,244.432,0.0,0.013
65642,244.145,0.0,0.011
65681,244.059,0.0,0.012
65711,244.101,0.0,0.015
65747,243.835,0.0,0.014
65780,243.749,0.0,0.011
65819,243.796,0.0,0.012
65852,243.885,0.0,0.01
65879,244.169,0.0,0.013
65903,244.151,0.0,0.013
65933,244.289,0.0,0.014
65961,244.255,0.0,0.012
65992,244.756,0.0,0.015
66063,244.774,0.0,0.012
66077,244.294,0.0,0.013
66118,244.348,0.0,0.012
66120,244.857,0.0,0.011
66169,244.886,0.0,0.013
66217,244.745,0.0,0.014
66243,244.752,0.0,0.014
66280,245.041,0.0,0.012
66309,245.087,0.0,0.013
66335,244.652,0.0,0.009
66370,244.688,0.0,0.013
66406,244.28,0.0,0.012
66439,244.323,0.0,0.011
66468,245.048,0.0,0.01
66492,245.068,0.0,0.013
66528,245.197,0.0,0.011
66551,245.206,0.0,0.011
66608,245.241,0.0,0.011
66647,245.287,0.0,0.014
66669,245.23,0.0,0.014
66695,245.252,0.0,0.011
66718,244.907,0.0,0.009
66766,244.444,0.0,0.012
66798,244.666,0.0,0.016
66820,244.528,0.0,0.017
66881,244.296,0.0,0.012
66914,244.344,0.0,0.013
66954,243.594,0.0,0.013
66966,243.602,0.0,0.01
67015,243.956,0.0,0.014
67049,243.888,0.0,0.009
67060,243.907,0.0,0.01
67100,243.886,0.0,0.011
67153,244.379,0.0,0.015
67192,244.357,0.0,0.017
67205,244.196,0.0,0.012
67234,244.251,0.0,0.012
67257,244.039,0.0,0.012
67303,244.075,0.0,0.01
67334,244.363,0.0,0.01
67366,244.451,0.0,0.01
67391,244.477,0.0,0.013
67444,244.053,0.0,0.014
67451,244.06,0.0,0.011
67503,244.067,0.0,0.01
67535,244.155,0.0,0.009
67593,244.203,0.0,0.008
67629,244.217,0.0,0.011
67685,244.453,0.0,0.015
67725,244.467,0.0,0.01
67732,244.346,0.0,0.008
67774,244.374,0.0,0.013
67814,245.003,0.0,0.014
67857,244.64,0.0,0.013
67926,244.686,0.0,0.017
67943,244.907,0.0,0.009
68017,244.896,0.0,0.011
68066,244.84,0.0,0.009
68074,244.179,0.0,0.015
68126,243.994,0.0,0.015
68169,243.943,0.0,0.012
68199,244.025,0.0,0.013
68217,244.004,0.0,0.013
68254,244.019,0.0,0.015
68309,243.725,0.0,0.01
68320,243.61,0.0,0.012
68376,243.565,0.0,0.01
68412,243.652,0.0,0.011
68417,243.649,0.0,0.01
68474,243.667,0.0,0.01
68503,243.721,0.0,0.008
68531,243.51,0.0,0.01
68579,243.551,0.0,0.009
68616,243.572,0.0,0.009
68652,244.276,0.0,0.011
68727,244.239,0.0,0.015
68744,243.445,0.0,0.008
68787,243.449,0.0,0.011
68820,243.784,0.0,0.01
68828,243.813,0.0,0.01
68899,244.243,0.0,0.013
68901,244.307,0.0,0.01
68940,244.211,0.0,0.013
68968,244.242,0.0,0.014
69002,244.49,0.0,0.014
69030,244.509,0.0,0.014
69056,244.296,0.0,0.009
69109,244.339,0.0,0.012
69138,243.959,0.0,0.008
69170,243.932,0.0,0.01
69200,244.049,0.0,0.014
69236,243.565,0.0,0.019
69262,243.14,0.0,0.012
69308,243.095,0.0,0.013
69334,242.797,0.0,0.009
69361,242.839,0.0,0.009
69410,242.869,0.0,0.009
69435,242.945,0.0,0.011
69463,243.197,0.0,0.01
69514,243.212,0.0,0.01
69555,243.471,0.0,0.014
69582,243.427,0.0,0.015
69653,243.062,0.0,0.013
69655,243.241,0.0,0.01
69726,243.272,0.0,0.009
69791,243.146,0.0,0.009
69802,243.279,0.0,0.012
69842,243.31,0.0,0.009
69876,243.334,0.0,0.01
69912,243.343,0.0,0.011
69952,243.695,0.0,0.015
69980,243.72,0.0,0.009
69986,243.79,0.0,0.011
70055,243.805,0.0,0.012
70060,243.843,0.0,0.01
70132,243.906,0.0,0.01
70172,243.6,0.0,0.008
70183,243.606,0.0,0.007
70215,243.274,0.0,0.015
70221,242.868,0.0,0.013
70286,243.022,0.0,0.016
70291,242.99,0.0,0.015
70360,242.266,0.0,0.013
70361,242.303,0.0,0.009
70430,242.863,0.0,0.012
70431,242.995,0.0,0.011
70478,243.286,0.0,0.011
70505,243.258,0.0,0.014
70534,242.911,0.0,0.013
70562,242.872,0.0,0.014
70589,242.535,0.0,0.01
70613,242.573,0.0,0.012
70666,243.286,0.0,0.017
70718,243.311,0.0,0.02
70784,243.156,0.0,0.012
70857,243.089,0.0,0.013
70858,243.283,0.0,0.013
70935,243.359,0.0,0.012
70983,243.015,0.0,0.012
70991,243.075,0.0,0.012
71034,242.744,0.0,0.009
71090,242.942,0.0,0.014
71096,242.552,0.0,0.016
71166,241.776,0.0,0.011
71204,241.814,0.0,0.011
71251,242.639,0.0,0.017
71340,242.722,0.0,0.014
71353,242.508,0.0,0.015
71357,242.483,0.0,0.014
71413,242.186,0.0,0.016
71445,242.154,0.0,0.016
71455,242.615,0.0,0.016
71517,242.654,0.0,0.014
71573,242.975,0.0,0.013
71600,242.719,0.0,0.015
71632,242.755,0.0,0.015
71661,243.169,0.0,0.009
71689,243.162,0.0,0.014
71742,242.77,0.0,0.009
71772,242.784,0.0,0.01
71800,242.828,0.0,0.011
71835,242.879,0.0,0.012
71865,243.181,0.0,0.011
71902,243.207,0.0,0.013
71944,242.825,0.0,0.012
71981,242.562,0.0,0.013
71985,241.803,0.0,0.012
72082,241.509,0.0,0.01
72096,242.272,0.0,0.014
72158,241.45,0.0,0.014
72212,241.441,0.0,0.011
72224,241.416,0.0,0.013
72270,241.472,0.0,0.012
72286,241.624,0.0,0.013
72334,241.601,0.0,0.013
72349,241.874,0.0,0.015
72392,241.896,0.0,0.014
72399,242.217,0.0,0.015
72426,242.25,0.0,0.014
72483,241.416,0.0,0.014
72536,241.47,0.0,0.012
72576,242.235,0.0,0.018
72598,242.263,0.0,0.013
72608,241.751,0.0,0.011
72639,241.764,0.0,0.013
72669,242.073,0.0,0.011
72706,242.09,0.0,0.011
72752,242.552,0.0,0.018
72778,242.596,0.0,0.015
72816,242.549,0.0,0.014
72878,242.408,0.0,0.015
72906,242.438,0.0,0.011
72942,242.504,0.0,0.012
72963,242.405,0.0,0.014
73002,242.446,0.0,0.011
73028,242.493,0.0,0.011
73054,242.538,0.0,0.013
73079,242.569,0.0,0.011
73124,242.269,0.0,0.012
73153,241.759,0.0,0.014
73180,241.435,0.0,0.013
73232,241.271,0.0,0.018
73259,241.575,0.0,0.012
73291,241.575,0.0,0.016
73341,241.287,0.0,0.019
73370,241.305,0.0,0.016
73394,240.671,0.0,0.01
73422,240.747,0.0,0.01
73447,241.138,0.0,0.011
73497,241.108,0.0,0.018
73545,241.443,0.0,0.013
73575,241.448,0.0,0.016
73579,240.675,0.0,0.013
73646,240.71,0.0,0.009
73649,241.381,0.0,0.01
73707,241.425,0.0,0.01
73730,241.951,0.0,0.012
73760,241.994,0.0,0.016
73825,241.359,0.0,0.011
73826,241.406,0.0,0.014
73908,241.655,0.0,0.013
73916,240.869,0.0,0.01
73996,240.968,0.0,0.008
74002,241.767,0.0,0.01
74051,241.82,0.0,0.009
74052,241.889,0.0,0.011
74108,241.916,0.0,0.012
74142,242.395,0.0,0.012
74183,242.457,0.0,0.016
74215,242.317,0.0,0.013
74245,242.349,0.0,0.012
74249,242.193,0.0,0.014
74308,242.222,0.0,0.012
74345,242.556,0.0,0.008
74385,242.449,0.0,0.01
74431,242.503,0.0,0.01
74464,242.496,0.0,0.013
74500,242.321,0.0,0.013
74526,242.2,0.0,0.013
74562,241.82,0.0,0.014
74596,241.707,0.0,0.011
74633,241.78,0.0,0.014
74664,241.565,0.0,0.01
74697,241.562,0.0,0.011
74739,241.673,0.0,0.014
74778,241.776,0.0,0.012
74784,242.105,0.0,0.016
74850,242.112,0.0,0.017
74856,241.529,0.0,0.008
74892,241.534,0.0,0.014
74931,241.754,0.0,0.017
74970,242.309,0.0,0.016
75006,242.388,0.0,0.018
75049,242.435,0.0,0.015
75080,242.308,0.0,0.014
75086,242.344,0.0,0.01
75157,242.023,0.0,0.012
75177,242.074,0.0,0.016
75214,241.804,0.0,0.01
75217,241.831,0.0,0.014
75264,242.289,0.0,0.019
75301,242.321,0.0,0.015
75333,241.852,0.0,0.012
75368,241.903,0.0,0.013
75391,242.776,0.0,0.013
75427,242.808,0.0,0.015
75452,242.368,0.0,0.014
75505,242.408,0.0,0.012
75513,242.253,0.0,0.013
75575,242.296,0.0,0.016
75579,242.537,0.0,0.012
75644,242.482,0.0,0.011
75649,241.721,0.0,0.016
75713,241.337,0.0,0.013
75725,241.605,0.0,0.011
75761,241.64,0.0,0.009
75798,241.804,0.0,0.019
75828,241.855,0.0,0.016
75866,241.105,0.0,0.012
75898,241.192,0.0,0.01
75937,242.065,0.0,0.011
75969,241.331,0.0,0.009
76000,241.311,0.0,0.01
76030,241.309,0.0,0.012
76068,241.946,0.0,0.015
76150,241.996,0.0,0.011
76151,241.908,0.0,0.01
76152,241.972,0.0,0.013
76216,241.939,0.0,0.013
76227,241.975,0.0,0.012
76263,242.198,0.0,0.016
76345,242.217,0.0,0.011
76352,242.693,0.0,0.014
76357,242.71,0.0,0.016
76424,242.133,0.0,0.012
76430,242.184,0.0,0.011
76473,242.102,0.0,0.012
76503,242.167,0.0,0.011
76537,242.02,0.0,0.008
76572,242.023,0.0,0.009
76602,242.464,0.0,0.012
76636,242.494,0.0,0.012
76669,242.274,0.0,0.009
76704,242.317,0.0,0.007
76735,242.771,0.0,0.014
76778,241.924,0.0,0.014
76847,241.016,0.0,0.011
76851,240.812,0.0,0.01
76914,240.829,0.0,0.011
76919,241.622,0.0,0.012
76985,241.575,0.0,0.013
76990,241.52,0.0,0.011
77055,241.557,0.0,0.013
77091,242.153,0.0,0.013
77096,242.167,0.0,0.015
77147,241.66,0.0,0.016
77216,241.645,0.0,0.015
77231,241.417,0.0,0.011
77286,240.811,0.0,0.01
77340,241.199,0.0,0.015
77378,241.235,0.0,0.01
77391,241.52,0.0,0.016
77440,241.521,0.0,0.014
77473,242.22,0.0,0.013
77515,242.222,0.0,0.014
77523,241.912,0.0,0.011
77546,241.927,0.0,0.013
77599,241.704,0.0,0.009
77628,241.726,0.0,0.017
77657,242.17,0.0,0.012
77684,242.184,0.0,0.011
77732,241.255,0.0,0.012
77763,241.268,0.0,0.011
77815,241.422,0.0,0.011
77816,241.457,0.0,0.009
77865,242.031,0.0,0.013
77895,242.162,0.0,0.013
77925,242.23,0.0,0.008
77953,242.123,0.0,0.012
77981,242.14,0.0,0.008
78042,241.901,0.0,0.01
78049,241.066,0.0,0.015
78104,240.663,0.0,0.014
78110,241.061,0.0,0.016
78174,241.113,0.0,0.012
78184,240.57,0.0,0.013
78239,241.16,0.0,0.014
78244,241.184,0.0,0.013
78319,241.264,0.0,0.012
78324,241.189,0.0,0.016
78369,241.195,0.0,0.015
78401,240.569,0.0,0.013
78429,240.544,0.0,0.013
78465,240.605,0.0,0.01
78498,240.627,0.0,0.012
78535,240.844,0.0,0.012
78570,240.881,0.0,0.01
78615,241.155,0.0,0.012
78642,241.183,0.0,0.011
78698,241.76,0.0,0.015
78727,240.953,0.0,0.015
78759,241.123,0.0,0.013
78789,241.16,0.0,0.012
78820,241.199,0.0,0.012
78876,241.827,0.0,0.012
78881,241.909,0.0,0.008
78943,241.349,0.0,0.011
78950,241.38,0.0,0.011
79017,241.825,0.0,0.017
79023,241.882,0.0,0.008
79058,241.98,0.0,0.014
79112,242.086,0.0,0.015
79146,241.564,0.0,0.012
79147,241.62,0.0,0.012
79236,242.014,0.0,0.014
79244,241.476,0.0,0.013
79284,240.3,0.0,0.013
79313,240.234,0.0,0.009
79320,240.649,0.0,0.011
79374,240.69,0.0,0.013
79379,241.235,0.0,0.017
79443,241.311,0.0,0.015
79452,241.115,0.0,0.011
79508,241.154,0.0,0.013
79579,241.153,0.0,0.013
79656,241.363,0.0,0.011
79708,240.84,0.0,0.013
79750,240.996,0.0,0.011
79822,241.473,0.0,0.014
79833,241.521,0.0,0.014
79868,241.76,0.0,0.017
79911,241.808,0.0,0.011
79935,241.501,0.0,0.013
79970,241.566,0.0,0.013
80000,242.128,0.0,0.014
80034,242.184,0.0,0.012
80066,241.206,0.0,0.013
80093,241.77,0.0,0.01
80131,241.812,0.0,0.01
80157,241.779,0.0,0.013
80184,241.841,0.0,0.012
80239,241.381,0.0,0.014
80275,241.196,0.0,0.015
80303,241.134,0.0,0.013
80334,241.211,0.0,0.013
80368,241.178,0.0,0.014
80400,241.102,0.0,0.008
80437,241.225,0.0,0.012
80460,241.26,0.0,0.013
80492,241.257,0.0,0.014
80520,241.874,0.0,0.017
80547,241.838,0.0,0.016
80602,241.233,0.0,0.012
80623,241.282,0.0,0.011
80681,240.677,0.0,0.012
80751,241.817,0.0,0.013
80755,241.837,0.0,0.012
80818,241.469,0.0,0.01
80822,241.509,0.0,0.013
80886,241.341,0.0,0.008
80890,241.355,0.0,0.01
80965,241.997,0.0,0.02
80974,242.053,0.0,0.015
81031,241.458,0.0,0.013
81067,241.36,0.0,0.01
81090,241.388,0.0,0.01
81124,241.057,0.0,0.008
81153,240.761,0.0,0.01
81181,240.917,0.0,0.014
81225,240.702,0.0,0.013
81280,240.598,0.0,0.019
81296,240.652,0.0,0.015
81362,240.079,0.0,0.013
81405,239.888,0.0,0.013
81449,239.994,0.0,0.011
81468,240.775,0.0,0.016
81539,240.804,0.0,0.012
81554,240.849,0.0,0.017
81592,240.858,0.0,0.01
81609,240.38,0.0,0.011
81642,240.429,0.0,0.008
81651,240.483,0.0,0.014
81685,240.545,0.0,0.015
81723,240.826,0.0,0.013
81758,240.845,0.0,0.01
81825,240.508,0.0,0.01
81831,240.961,0.0,0.012
81862,240.978,0.0,0.013
81912,241.009,0.0,0.013
81944,241.574,0.0,0.017
81949,241.626,0.0,0.014
82011,241.259,0.0,0.015
82050,241.334,0.0,0.017
82092,241.027,0.0,0.013
82103,241.094,0.0,0.011
82144,241.281,0.0,0.011
82174,241.329,0.0,0.013
82208,240.872,0.0,0.013
82276,241.959,0.0,0.01
82287,242.003,0.0,0.014
82329,241.71,0.0,0.015
82359,241.725,0.0,0.014
82390,241.765,0.0,0.017
82420,241.185,0.0,0.015
82460,240.731,0.0,0.011
82504,240.595,0.0,0.012
82542,240.945,0.0,0.014
82547,240.96,0.0,0.015
82583,239.473,0.0,0.011
82632,239.466,0.0,0.008
82667,240.182,0.0,0.02
82672,240.234,0.0,0.016
82737,240.765,0.0,0.016
82741,240.775,0.0,0.012
82808,240.539,0.0,0.016
82815,240.579,0.0,0.014
82850,240.473,0.0,0.014
82885,240.523,0.0,0.013
82928,240.824,0.0,0.018
82965,240.827,0.0,0.016
83001,240.533,0.0,0.016
83018,240.533,0.0,0.015
83091,240.421,0.0,0.013
83099,240.475,0.0,0.008
83128,241.19,0.0,0.013
83175,241.23,0.0,0.015
83205,240.942,0.0,0.013
83212,241.003,0.0,0.013
83273,240.778,0.0,0.012
83276,240.859,0.0,0.012
83328,241.207,0.0,0.019
83362,241.246,0.0,0.011
83399,240.883,0.0,0.014
83434,240.909,0.0,0.014
83481,241.434,0.0,0.014
83514,241.464,0.0,0.009
83545,241.47,0.0,0.011
83551,241.525,0.0,0.013
83591,241.726,0.0,0.01
83631,241.74,0.0,0.012
83667,240.481,0.0,0.012
83699,239.945,0.0,0.013
83746,240.283,0.0,0.02
83776,240.278,0.0,0.013
83780,240.534,0.0,0.013
83850,240.507,0.0,0.015
83854,240.63,0.0,0.016
83901,240.698,0.0,0.015
83945,240.092,0.0,0.012
83951,240.152,0.0,0.014
83984,240.864,0.0,0.01
84051,240.842,0.0,0.015
84085,240.541,0.0,0.013
84130,240.929,0.0,0.013
84167,240.957,0.0,0.012
84199,240.708,0.0,0.014
84232,240.746,0.0,0.015
84275,240.721,0.0,0.011
84297,240.791,0.0,0.014
84335,240.429,0.0,0.009
84364,240.485,0.0,0.014
84394,241.343,0.0,0.012
84420,241.393,0.0,0.014
84457,241.295,0.0,0.016
84500,241.371,0.0,0.013
84540,241.722,0.0,0.011
84574,241.72,0.0,0.013
84631,241.323,0.0,0.015
84641,241.375,0.0,0.017
84694,241.405,0.0,0.015
84735,241.005,0.0,0.01
84764,241.039,0.0,0.011
84808,241.686,0.0,0.012
84845,241.293,0.0,0.012
84883,240.713,0.0,0.016
84927,240.489,0.0,0.014
84960,240.559,0.0,0.012
85000,240.055,0.0,0.015
85037,240.122,0.0,0.012
85085,240.019,0.0,0.014
85118,240.083,0.0,0.016
85166,241.513,0.0,0.02
85198,240.884,0.0,0.014
85206,240.942,0.0,0.01
85284,240.901,0.0,0.016
85289,240.947,0.0,0.015
85361,241.299,0.0,0.014
85411,241.536,0.0,0.013
85438,241.469,0.0,0.015
85464,241.513,0.0,0.016
85472,241.56,0.0,0.018
85525,241.334,0.0,0.013
85555,241.392,0.0,0.01
85588,240.816,0.0,0.012
85620,240.886,0.0,0.013
85653,241.429,0.0,0.012
85681,241.462,0.0,0.011
85711,241.759,0.0,0.012
85766,241.831,0.0,0.014
85804,242.344,0.0,0.016
85828,242.367,0.0,0.013
85857,241.669,0.0,0.01
85902,241.7,0.0,0.012
85925,241.864,0.0,0.008
85955,241.464,0.0,0.015
85987,241.2,0.0,0.012
86015,241.0,0.0,0.014
86068,240.448,0.0,0.013
86109,240.91,0.0,0.012
86186,240.903,0.0,0.013
86276,241.402,0.0,0.017
86277,241.374,0.0,0.012
86281,241.366,0.0,0.015
86315,240.884,0.0,0.012
86365,240.902,0.0,0.013
86399,240.945,0.0,0.01
86427,241.056,0.0,0.015
86475,241.7,0.0,0.015
86504,241.766,0.0,0.015
86508,241.699,0.0,0.012
86585,241.75,0.0,0.012
86596,241.61,0.0,0.012
86636,241.623,0.0,0.015
86666,241.569,0.0,0.014
86672,241.606,0.0,0.014
86740,241.348,0.0,0.013
86745,241.394,0.0,0.011
86810,242.146,0.0,0.014
86816,242.169,0.0,0.016
86843,242.106,0.0,0.013
86908,242.173,0.0,0.017
86909,241.765,0.0,0.011
86979,241.824,0.0,0.011
87050,241.659,0.0,0.011
87105,242.638,0.0,0.017
87145,242.421,0.0,0.015
87146,242.279,0.0,0.017
87224,241.995,0.0,0.015
87230,241.606,0.0,0.01
87264,241.739,0.0,0.014
87292,241.75,0.0,0.019
87313,241.634,0.0,0.019
87341,241.63,0.0,0.018
87375,241.176,0.0,0.014
87438,241.267,0.0,0.014
87444,241.814,0.0,0.018
87506,241.832,0.0,0.014
87512,241.274,0.0,0.014
87573,241.285,0.0,0.013
87578,241.524,0.0,0.014
87639,241.623,0.0,0.017
87653,242.001,0.0,0.014
87691,242.059,0.0,0.018
87715,241.833,0.0,0.013
87772,241.851,0.0,0.013
87773,241.526,0.0,0.012
87848,241.562,0.0,0.013
87922,242.37,0.0,0.011
87933,243.005,0.0,0.021
87977,243.059,0.0,0.018
88009,241.736,0.0,0.015
88014,241.775,0.0,0.013
88083,242.767,0.0,0.014
88117,242.519,0.0,0.019
88184,242.591,0.0,0.015
88232,242.598,0.0,0.01
88256,242.647,0.0,0.013
88294,242.653,0.0,0.019
88329,242.854,0.0,0.013
88359,242.873,0.0,0.015
88388,242.229,0.0,0.015
88431,241.714,0.0,0.014
88467,241.419,0.0,0.014
88471,241.37,0.0,0.019
88535,241.619,0.0,0.013
88539,241.646,0.0,0.015
88581,241.657,0.0,0.011
88612,241.715,0.0,0.011
88687,241.861,0.0,0.012
88708,241.894,0.0,0.013
88743,241.72,0.0,0.013
88744,241.991,0.0,0.015
88833,242.003,0.0,0.016
88839,242.03,0.0,0.019
88871,241.646,0.0,0.014
88921,241.712,0.0,0.011
88956,242.578,0.0,0.015
89001,242.238,0.0,0.014
89033,242.265,0.0,0.014
89039,242.63,0.0,0.014
89101,242.683,0.0,0.018
89141,242.667,0.0,0.016
89218,242.819,0.0,0.011
89229,242.891,0.0,0.015
89263,242.825,0.0,0.012
89267,242.875,0.0,0.015
89316,242.827,0.0,0.013
89349,242.853,0.0,0.012
89378,243.063,0.0,0.01
89416,243.133,0.0,0.009
89450,242.785,0.0,0.015
89484,242.818,0.0,0.014
89520,243.421,0.0,0.012
89606,243.023,0.0,0.011
89613,241.531,0.0,0.011
89674,241.531,0.0,0.01
89707,241.603,0.0,0.011
89713,241.976,0.0,0.011
89768,242.009,0.0,0.013
89806,242.583,0.0,0.014
89808,242.622,0.0,0.012
89905,242.61,0.0,0.014
89912,242.625,0.0,0.011
89971,242.682,0.0,0.015
90008,242.82,0.0,0.01
90069,242.562,0.0,0.012
90108,242.642,0.0,0.012
90215,242.576,0.0,0.01
90228,243.118,0.0,0.016
90269,243.028,0.0,0.015
90334,242.859,0.0,0.008
90339,242.934,0.0,0.014
90395,242.866,0.0,0.018
90405,242.92,0.0,0.009
90464,243.465,0.0,0.012
90468,243.488,0.0,0.015
90517,242.561,0.0,0.01
90546,242.129,0.0,0.015
90572,242.704,0.0,0.017
90617,242.561,0.0,0.013
90656,242.222,0.0,0.015
90684,242.279,0.0,0.012
90718,241.912,0.0,0.015
90761,241.951,0.0,0.017
90797,242.463,0.0,0.015
90810,242.513,0.0,0.015
90860,242.387,0.0,0.007
90866,242.365,0.0,0.01
90930,241.964,0.0,0.014
90936,241.977,0.0,0.01
91002,242.785,0.0,0.017
91009,242.841,0.0,0.018
91041,242.364,0.0,0.012
91105,242.427,0.0,0.016
91176,242.938,0.0,0.019
91190,243.068,0.0,0.016
91229,243.092,0.0,0.012
91261,242.389,0.0,0.015
91267,242.42,0.0,0.013
91333,242.993,0.0,0.01
91338,243.074,0.0,0.014
91398,243.308,0.0,0.011
91403,243.354,0.0,0.015
91464,242.949,0.0,0.012
91473,242.969,0.0,0.012
91526,243.449,0.0,0.016
91536,243.473,0.0,0.015
91596,243.127,0.0,0.011
91604,242.815,0.0,0.013
91669,242.998,0.0,0.016
91673,242.702,0.0,0.014
91735,241.948,0.0,0.016
91740,241.965,0.0,0.015
91803,242.455,0.0,0.014
91808,242.451,0.0,0.016
91870,242.216,0.0,0.014
91875,242.282,0.0,0.015
91941,241.827,0.0,0.015
91945,241.862,0.0,0.011
91979,241.658,0.0,0.013
92035,241.664,0.0,0.012
92072,241.935,0.0,0.012
92080,241.967,0.0,0.017
92124,242.331,0.0,0.016
92164,242.253,0.0,0.011
92201,242.292,0.0,0.013
92210,242.298,0.0,0.012
92277,242.537,0.0,0.011
92285,242.571,0.0,0.013
92320,242.801,0.0,0.015
92372,242.823,0.0,0.012
92403,242.781,0.0,0.017
92409,242.86,0.0,0.017
92473,242.709,0.0,0.012
92483,242.758,0.0,0.014
92528,242.327,0.0,0.012
92560,242.375,0.0,0.008
92588,243.13,0.0,0.015
92624,243.223,0.0,0.016
92658,243.074,0.0,0.012
92691,243.091,0.0,0.014
92719,243.061,0.0,0.014
92759,243.114,0.0,0.013
92798,243.186,0.0,0.017
92826,242.515,0.0,0.011
92859,242.037,0.0,0.008
92892,241.521,0.0,0.01
92922,241.96,0.0,0.015
92950,241.958,0.0,0.013
92992,242.039,0.0,0.013
93019,242.031,0.0,0.016
93056,241.292,0.0,0.009
93089,241.332,0.0,0.011
93130,242.277,0.0,0.014
93167,242.323,0.0,0.01
93198,241.566,0.0,0.009
93236,241.543,0.0,0.008
93239,242.099,0.0,0.013
93290,242.12,0.0,0.013
93322,242.285,0.0,0.015
93357,242.332,0.0,0.014
93393,242.083,0.0,0.008
93424,242.112,0.0,0.01
93447,242.365,0.0,0.011
93492,242.404,0.0,0.01
93521,242.238,0.0,0.012
93559,242.298,0.0,0.012
93595,241.966,0.0,0.008
93625,242.013,0.0,0.014
93652,242.976,0.0,0.016
93694,243.059,0.0,0.019
93716,242.592,0.0,0.01
93761,242.636,0.0,0.009
93795,242.835,0.0,0.01
93851,242.929,0.0,0.011
93864,242.99,0.0,0.013
93910,242.872,0.0,0.014
93939,242.743,0.0,0.014
93968,242.882,0.0,0.011
94030,242.497,0.0,0.015
94062,241.993,0.0,0.013
94090,242.04,0.0,0.015
94127,242.454,0.0,0.018
94161,242.492,0.0,0.017
94165,242.411,0.0,0.015
94217,242.508,0.0,0.016
94262,242.268,0.0,0.011
94296,242.306,0.0,0.015
94300,241.998,0.0,0.013
94357,242.0,0.0,0.011
94366,242.172,0.0,0.016
94436,242.237,0.0,0.014
94445,241.98,0.0,0.011
94505,242.036,0.0,0.012
94579,242.342,0.0,0.01
94581,242.749,0.0,0.011
94652,242.761,0.0,0.011
94653,242.236,0.0,0.011
94706,242.921,0.0,0.015
94737,242.965,0.0,0.014
94742,243.003,0.0,0.013
94827,242.742,0.0,0.012
94828,243.366,0.0,0.011
94832,243.436,0.0,0.012
94898,243.495,0.0,0.013
94928,243.148,0.0,0.016
94933,242.916,0.0,0.014
94987,242.811,0.0,0.015
95028,242.469,0.0,0.017
95060,242.087,0.0,0.013
95137,242.044,0.0,0.015
95141,242.096,0.0,0.016
95178,242.108,0.0,0.012
95224,242.149,0.0,0.012
95263,242.207,0.0,0.014
95271,242.224,0.0,0.016
95309,242.273,0.0,0.018
95354,242.296,0.0,0.013
95390,242.335,0.0,0.014
95428,242.398,0.0,0.015
95463,242.478,0.0,0.01
95490,242.562,0.0,0.011
95500,242.465,0.0,0.015
95549,242.51,0.0,0.014
95582,242.332,0.0,0.01
95617,242.683,0.0,0.012
95644,242.704,0.0,0.009
95667,242.727,0.0,0.014
95732,243.154,0.0,0.011
95737,243.196,0.0,0.012
95794,243.141,0.0,0.013
95798,243.189,0.0,0.013
95864,243.372,0.0,0.014
95869,243.416,0.0,0.014
95922,242.886,0.0,0.01
95928,242.921,0.0,0.011
95991,242.702,0.0,0.01
95996,242.249,0.0,0.01
96051,242.493,0.0,0.017
96086,242.259,0.0,0.011
96115,242.183,0.0,0.017
96153,242.263,0.0,0.015
96204,241.918,0.0,0.016
96240,241.921,0.0,0.017
96245,241.859,0.0,0.014
96280,241.959,0.0,0.011
96306,242.572,0.0,0.015
96347,242.552,0.0,0.01
96374,241.904,0.0,0.016
96413,241.916,0.0,0.01
96440,242.294,0.0,0.014
96489,242.351,0.0,0.012
96528,242.704,0.0,0.011
96564,242.749,0.0,0.013
96573,242.277,0.0,0.013
96641,242.33,0.0,0.01
96643,242.523,0.0,0.01
96678,242.575,0.0,0.013
96710,242.279,0.0,0.008
96753,242.285,0.0,0.011
96783,242.887,0.0,0.012
96820,242.971,0.0,0.014
96847,242.24,0.0,0.013
96885,242.25,0.0,0.009
96917,242.82,0.0,0.012
96955,242.863,0.0,0.011
96983,242.431,0.0,0.011
97016,242.491,0.0,0.011
97055,243.078,0.0,0.011
97087,243.102,0.0,0.014
97120,242.798,0.0,0.011
97151,242.297,0.0,0.011
97184,241.647,0.0,0.01
97210,241.481,0.0,0.011
97257,241.909,0.0,0.014
97285,241.976,0.0,0.014
97310,241.165,0.0,0.01
97352,241.168,0.0,0.008
97379,242.184,0.0,0.015
97414,242.272,0.0,0.015
97448,242.084,0.0,0.012
97485,242.045,0.0,0.015
97513,242.027,0.0,0.012
97549,242.038,0.0,0.013
97580,241.968,0.0,0.012
97620,242.014,0.0,0.016
97662,242.579,0.0,0.014
97695,242.643,0.0,0.013
97697,242.096,0.0,0.017
97778,242.125,0.0,0.016
97825,242.388,0.0,0.017
97830,242.416,0.0,0.013
97921,242.53,0.0,0.012
97927,242.715,0.0,0.013
97962,242.96,0.0,0.012
97967,243.03,0.0,0.014
98041,243.059,0.0,0.013
98055,242.552,0.0,0.013
98078,242.592,0.0,0.013
98107,243.27,0.0,0.016
98147,243.281,0.0,0.015
98187,242.928,0.0,0.019
98212,242.426,0.0,0.019
98253,241.647,0.0,0.017
98281,241.494,0.0,0.018
98320,241.415,0.0,0.015
98353,241.829,0.0,0.016
98388,241.889,0.0,0.016
98420,241.943,0.0,0.017
98460,241.236,0.0,0.011
98495,241.433,0.0,0.012
98527,241.423,0.0,0.012
98574,242.059,0.0,0.011
98609,241.839,0.0,0.01
98671,241.863,0.0,0.011
98687,241.934,0.0,0.014
98721,241.817,0.0,0.012
98761,241.848,0.0,0.009
98795,241.896,0.0,0.015
98827,241.401,0.0,0.011
98857,241.391,0.0,0.01
98864,241.444,0.0,0.009
98899,241.989,0.0,0.012
98990,242.044,0.0,0.012
98994,242.094,0.0,0.011
99026,242.141,0.0,0.012
99061,242.347,0.0,0.015
99120,242.13,0.0,0.009
99126,241.608,0.0,0.012
99181,241.214,0.0,0.011
99190,241.11,0.0,0.012
99244,241.355,0.0,0.01
99274,241.382,0.0,0.013
99334,241.433,0.0,0.012
99425,241.169,0.0,0.008
99472,240.984,0.0,0.012
99511,240.954,0.0,0.01
99512,241.72,0.0,0.013
99548,241.772,0.0,0.015
99584,241.736,0.0,0.013
99627,241.764,0.0,0.014
99662,241.535,0.0,0.015
99692,241.572,0.0,0.011
99734,241.455,0.0,0.012
99768,241.499,0.0,0.014
99773,241.967,0.0,0.011
99849,241.582,0.0,0.008
99896,241.627,0.0,0.014
99926,242.021,0.0,0.011
99931,241.814,0.0,0.011
99965,241.87,0.0,0.01
100001,241.898,0.0,0.012
100047,242.03,0.0,0.015
100092,242.079,0.0,0.011
100138,242.266,0.0,0.013
100175,242.198,0.0,0.012
100181,241.244,0.0,0.011
100254,240.632,0.0,0.01
100260,240.948,0.0,0.014
100329,240.998,0.0,0.014
100335,240.997,0.0,0.011
100368,240.869,0.0,0.014
100457,240.943,0.0,0.012
100460,241.364,0.0,0.013
100512,240.582,0.0,0.014
100546,240.544,0.0,0.014
100587,240.753,0.0,0.013
100594,240.792,0.0,0.013
100672,241.194,0.0,0.014
100677,241.221,0.0,0.016
100728,241.465,0.0,0.013
100756,241.512,0.0,0.013
100758,240.947,0.0,0.013
100819,240.984,0.0,0.015
100825,241.17,0.0,0.013
100879,241.166,0.0,0.012
100911,240.874,0.0,0.012
100947,240.92,0.0,0.011
100978,242.027,0.0,0.015
101008,242.1,0.0,0.013
101041,241.393,0.0,0.016
101072,241.439,0.0,0.013
101110,241.823,0.0,0.016
101142,241.853,0.0,0.013
101177,241.251,0.0,0.014
101211,241.267,0.0,0.012
101246,242.04,0.0,0.012
101273,242.078,0.0,0.015
101317,241.625,0.0,0.015
101352,241.436,0.0,0.011
101383,241.324,0.0,0.016
101406,240.871,0.0,0.013
101445,240.867,0.0,0.019
101474,240.241,0.0,0.014
101514,240.256,0.0,0.014
101542,240.261,0.0,0.012
101568,240.642,0.0,0.019
101619,240.728,0.0,0.016
101653,240.598,0.0,0.013
101661,240.608,0.0,0.01
101730,240.368,0.0,0.012
101738,240.395,0.0,0.011
101766,240.615,0.0,0.01
101836,240.676,0.0,0.012
101845,240.701,0.0,0.013
101885,240.754,0.0,0.013
101917,240.669,0.0,0.013
101959,240.705,0.0,0.018
102004,241.26,0.0,0.014
102039,241.314,0.0,0.012
102046,240.618,0.0,0.011
102086,240.664,0.0,0.01
102118,240.996,0.0,0.012
102152,241.032,0.0,0.014
102183,241.773,0.0,0.012
102221,241.835,0.0,0.013
102247,241.493,0.0,0.013
102285,241.162,0.0,0.015
102309,241.231,0.0,0.012
102351,241.29,0.0,0.012
102380,241.927,0.0,0.012
102419,241.971,0.0,0.011
102452,241.248,0.0,0.012
102487,241.017,0.0,0.012
102519,240.597,0.0,0.013
102550,240.169,0.0,0.011
102593,240.307,0.0,0.01
102621,240.385,0.0,0.015
102667,239.994,0.0,0.011
102697,239.984,0.0,0.015
102770,240.939,0.0,0.016
102776,240.789,0.0,0.01
102808,240.758,0.0,0.015
102847,240.693,0.0,0.011
102892,240.684,0.0,0.014
102921,239.954,0.0,0.01
102983,240.009,0.0,0.015
103025,240.856,0.0,0.011
103031,240.92,0.0,0.017
103103,241.11,0.0,0.015
103109,241.267,0.0,0.014
103159,241.269,0.0,0.013
103191,241.382,0.0,0.012
103195,241.438,0.0,0.015
103259,241.744,0.0,0.013
103266,241.776,0.0,0.016
103324,241.446,0.0,0.015
103328,241.27,0.0,0.012
103394,241.347,0.0,0.014
103396,241.422,0.0,0.014
103436,241.182,0.0,0.014
103466,241.173,0.0,0.014
103504,241.576,0.0,0.019
103542,241.098,0.0,0.021
103570,241.039,0.0,0.013
103636,240.981,0.0,0.019
103639,240.557,0.0,0.016
103698,240.634,0.0,0.011
103699,240.288,0.0,0.013
103769,240.454,0.0,0.015
103771,240.912,0.0,0.017
103798,240.88,0.0,0.014
103847,240.877,0.0,0.017
103874,240.864,0.0,0.012
103895,240.772,0.0,0.015
103967,240.817,0.0,0.01
103968,240.855,0.0,0.013
104028,240.884,0.0,0.014
104070,241.062,0.0,0.014
104093,241.115,0.0,0.014
104132,241.197,0.0,0.012
104162,241.205,0.0,0.014
104208,241.231,0.0,0.01
104256,241.115,0.0,0.011
104286,241.178,0.0,0.011
104323,241.373,0.0,0.011
104355,241.435,0.0,0.013
104360,241.198,0.0,0.013
104408,241.056,0.0,0.012
104448,240.619,0.0,0.014
104476,240.428,0.0,0.019
104526,239.924,0.0,0.011
104559,239.952,0.0,0.011
104600,240.56,0.0,0.012
104617,240.641,0.0,0.014
104646,240.773,0.0,0.013
104687,240.837,0.0,0.015
104720,240.528,0.0,0.011
104754,240.491,0.0,0.008
104778,240.402,0.0,0.013
104791,240.42,0.0,0.012
104845,241.308,0.0,0.02
104860,241.384,0.0,0.017
104930,240.999,0.0,0.013
104939,241.028,0.0,0.015
104984,241.778,0.0,0.014
105025,241.809,0.0,0.013
105028,240.84,0.0,0.012
105083,240.896,0.0,0.013
105115,241.341,0.0,0.018
105127,241.372,0.0,0.017
105188,241.418,0.0,0.017
105229,241.506,0.0,0.014
105260,241.517,0.0,0.017
105266,241.588,0.0,0.014
105294,241.547,0.0,0.014
105357,241.612,0.0,0.018
105365,241.461,0.0,0.016
105411,240.951,0.0,0.017
105436,240.648,0.0,0.018
105466,240.465,0.0,0.016
105500,240.645,0.0,0.018
105531,240.69,0.0,0.019
105580,239.961,0.0,0.012
105603,240.001,0.0,0.019
105631,239.994,0.0,0.013
105670,240.106,0.0,0.014
105722,240.384,0.0,0.012
105753,240.34,0.0,0.013
105754,240.377,0.0,0.014
105823,240.4,0.0,0.012
105826,240.454,0.0,0.012
105884,240.531,0.0,0.012
105976,240.491,0.0,0.014
105984,240.51,0.0,0.015
106013,239.977,0.0,0.01
106047,240.994,0.0,0.013
106070,241.033,0.0,0.014
106100,241.647,0.0,0.015
106145,241.692,0.0,0.015
106187,240.901,0.0,0.011
106228,240.937,0.0,0.014
106252,240.442,0.0,0.011
106284,240.473,0.0,0.016
106320,240.96,0.0,0.014
106340,241.005,0.0,0.011
106377,240.76,0.0,0.014
106409,240.797,0.0,0.01
106426,241.305,0.0,0.017
106463,241.322,0.0,0.014
106495,241.268,0.0,0.012
106566,241.323,0.0,0.012
106581,241.431,0.0,0.013
106588,241.516,0.0,0.013
106645,241.167,0.0,0.013
106684,240.843,0.0,0.011
106714,240.234,0.0,0.014
106753,240.115,0.0,0.011
106785,240.009,0.0,0.016
106789,240.061,0.0,0.013
106840,239.955,0.0,0.012
106859,239.968,0.0,0.014
106886,239.534,0.0,0.014
106952,239.658,0.0,0.013
106953,241.196,0.0,0.021
107019,241.197,0.0,0.022
107023,239.727,0.0,0.013
107074,239.853,0.0,0.013
107128,239.905,0.0,0.012
107163,239.957,0.0,0.015
107164,240.297,0.0,0.016
107234,240.356,0.0,0.012
107270,240.387,0.0,0.012
107311,240.423,0.0,0.014
107341,240.478,0.0,0.012
107361,240.307,0.0,0.013
107389,240.372,0.0,0.017
107458,241.31,0.0,0.014
107463,241.369,0.0,0.017
107539,240.687,0.0,0.017
107567,241.256,0.0,0.011
107633,241.054,0.0,0.014
107672,241.032,0.0,0.013
107699,241.237,0.0,0.015
107735,241.283,0.0,0.014
107770,241.233,0.0,0.012
107796,241.222,0.0,0.013
107825,241.299,0.0,0.015
107878,240.834,0.0,0.016
107917,240.035,0.0,0.009
107942,239.911,0.0,0.014
107971,240.144,0.0,0.017
108002,240.247,0.0,0.016
108049,240.345,0.0,0.016
108075,240.415,0.0,0.014
108101,240.296,0.0,0.015
108128,240.319,0.0,0.013
108177,240.892,0.0,0.014
108221,240.865,0.0,0.015
108251,240.57,0.0,0.015
108255,240.614,0.0,0.013
108323,240.772,0.0,0.014
108334,240.866,0.0,0.014
108383,240.374,0.0,0.017
108403,240.472,0.0,0.015
108431,240.554,0.0,0.012
108482,240.58,0.0,0.013
108510,240.611,0.0,0.013
108548,240.666,0.0,0.017
108569,240.51,0.0,0.011
108600,240.55,0.0,0.012
108625,240.99,0.0,0.014
108677,241.056,0.0,0.014
108686,241.564,0.0,0.012
108744,241.59,0.0,0.013
108751,241.319,0.0,0.012
108817,241.376,0.0,0.015
108822,241.086,0.0,0.014
108886,241.163,0.0,0.01
108897,241.537,0.0,0.01
108956,241.29,0.0,0.012
108986,240.658,0.0,0.014
108990,240.378,0.0,0.013
109054,240.095,0.0,0.019
109090,240.164,0.0,0.016
109094,240.309,0.0,0.016
109150,240.331,0.0,0.017
109155,240.809,0.0,0.019
109216,240.945,0.0,0.017
109220,240.396,0.0,0.017
109285,240.391,0.0,0.012
109290,240.961,0.0,0.016
109357,240.974,0.0,0.014
109362,240.491,0.0,0.013
109420,240.581,0.0,0.009
109425,241.119,0.0,0.011
109481,241.184,0.0,0.013
109492,241.353,0.0,0.016
109548,241.396,0.0,0.015
109561,241.257,0.0,0.013
109610,241.296,0.0,0.011
109644,241.584,0.0,0.018
109670,241.586,0.0,0.015
109695,241.462,0.0,0.011
109741,241.52,0.0,0.013
109768,241.914,0.0,0.014
109792,241.946,0.0,0.017
109841,241.406,0.0,0.012
109870,241.442,0.0,0.012
109895,241.768,0.0,0.01
109944,241.82,0.0,0.011
109970,242.058,0.0,0.014
110005,242.149,0.0,0.015
110038,241.788,0.0,0.011
110070,241.659,0.0,0.015
110108,241.041,0.0,0.018
110135,240.592,0.0,0.016
110171,240.663,0.0,0.016
110199,240.695,0.0,0.013
110228,240.725,0.0,0.014
110290,240.745,0.0,0.012
110295,240.939,0.0,0.014
110360,241.025,0.0,0.013
110387,241.149,0.0,0.014
110452,241.775,0.0,0.014
110492,241.758,0.0,0.015
110520,241.17,0.0,0.016
110558,241.206,0.0,0.014
110582,241.293,0.0,0.014
110627,241.338,0.0,0.013
110650,241.291,0.0,0.015
110693,241.741,0.0,0.008
110723,241.725,0.0,0.011
110792,241.584,0.0,0.013
110868,241.837,0.0,0.013
110876,241.866,0.0,0.014
110916,241.083,0.0,0.014
110949,241.138,0.0,0.009
110979,241.899,0.0,0.015
111016,241.89,0.0,0.011
111049,241.715,0.0,0.014
111080,241.735,0.0,0.012
111122,241.654,0.0,0.013
111125,241.719,0.0,0.015
111158,242.021,0.0,0.012
111187,241.968,0.0,0.014
111225,241.5,0.0,0.012
111254,240.989,0.0,0.011
111302,240.725,0.0,0.014
111331,240.682,0.0,0.016
111384,241.252,0.0,0.014
111386,241.245,0.0,0.017
111443,240.328,0.0,0.015
111476,240.408,0.0,0.014
111483,240.497,0.0,0.01
111528,240.501,0.0,0.012
111580,240.621,0.0,0.013
111609,240.596,0.0,0.016
