time,R,G,B
0,252.357,36.053,6.405
33,252.35,36.061,6.407
66,252.288,35.887,6.37
100,252.11,35.086,6.353
133,251.846,33.775,6.421
166,251.742,33.123,6.514
199,251.728,32.964,6.581
232,251.755,32.986,6.612
266,251.716,32.887,6.539
299,251.772,33.074,6.557
332,251.796,33.219,6.553
365,251.8,33.307,6.521
398,251.79,33.26,6.473
432,251.785,33.239,6.507
465,251.793,33.304,6.519
498,251.792,33.335,6.487
531,251.804,33.44,6.498
565,251.847,33.516,6.454
598,251.878,33.633,6.473
631,251.9,33.773,6.466
664,251.929,33.952,6.443
696,251.948,34.055,6.393
731,251.98,34.254,6.356
764,251.988,34.356,6.321
797,251.962,34.268,6.281
830,251.754,33.391,6.218
864,251.486,32.172,6.331
897,251.389,31.538,6.493
930,251.359,31.263,6.614
963,251.317,31.038,6.589
996,251.304,30.971,6.604
1030,251.35,31.088,6.654
1063,251.39,31.191,6.703
1096,251.382,31.2,6.666
1129,251.37,31.18,6.62
1163,251.366,31.166,6.651
1196,251.372,31.163,6.638
1229,251.384,31.205,6.626
1262,251.402,31.306,6.54
1294,251.427,31.475,6.529
1329,251.5,31.78,6.544
1362,251.546,31.996,6.515
1395,251.59,32.235,6.488
1428,251.595,32.363,6.409
1462,251.642,32.629,6.36
1495,251.614,32.671,6.231
1528,251.61,32.761,6.226
1561,251.475,32.336,6.207
1594,251.2,31.141,6.268
1628,251.023,30.093,6.447
1661,250.996,29.594,6.686
1694,250.925,29.123,6.801
1727,250.848,28.647,6.931
1761,250.813,28.345,7.052
1794,250.836,28.279,7.112
1827,250.802,28.104,7.18
1860,250.778,27.904,7.285
1892,250.735,27.658,7.311
1927,250.677,27.305,7.426
1960,250.577,26.851,7.468
1993,250.542,26.607,7.593
2026,250.541,26.464,7.711
2059,250.538,26.339,7.74
2093,250.506,26.255,7.775
2126,250.569,26.363,7.749
2159,250.606,26.47,7.797
2192,250.689,26.694,7.786
2226,250.749,26.875,7.802
2259,250.627,26.45,7.795
2292,250.402,25.626,7.904
2325,250.184,24.639,7.953
2392,250.08,23.557,8.482
2425,249.949,22.902,8.627
2458,249.857,22.379,8.799
2491,249.763,21.919,8.85
2525,249.7,21.576,9.035
2558,249.605,21.169,9.174
2591,249.492,20.717,9.225
2624,249.454,20.456,9.318
2657,249.405,20.209,9.366
2691,249.393,20.058,9.43
2723,249.405,20.025,9.553
2757,249.478,20.085,9.581
2790,249.638,20.402,9.696
2824,249.751,20.694,9.62
2857,249.938,21.25,9.556
2890,250.162,21.84,9.517
2923,250.32,22.424,9.462
2956,250.39,22.708,9.405
2990,250.28,22.392,9.356
3056,250.14,22.096,9.23
3089,250.173,22.415,9.129
3123,250.233,22.763,8.967
3156,250.282,23.066,8.824
3189,250.384,23.489,8.737
3222,250.433,23.816,8.617
3255,250.45,24.057,8.472
3289,250.512,24.354,8.426
3321,250.488,24.482,8.255
3355,250.503,24.676,8.133
3388,250.607,25.072,8.135
3422,250.669,25.383,8.022
3455,250.766,25.777,7.988
3488,250.865,26.168,7.974
3521,250.883,26.39,7.837
3554,250.898,26.626,7.746
3588,250.96,26.882,7.699
3621,250.985,27.134,7.658
3654,250.902,26.999,7.525
3687,250.697,26.563,7.452
3720,250.59,26.269,7.392
3754,250.572,26.21,7.357
3787,250.619,26.382,7.388
3820,250.668,26.572,7.305
3853,250.726,26.902,7.276
3887,250.765,27.134,7.182
3919,250.827,27.42,7.134
3953,250.812,27.571,7.017
3986,250.811,27.647,6.916
4019,250.796,27.751,6.812
4053,250.811,27.933,6.708
4086,250.815,28.168,6.545
4119,250.836,28.378,6.486
4152,250.824,28.541,6.317
4186,250.801,28.675,6.206
4219,250.803,28.889,6.079
4252,250.778,29.02,5.911
4285,250.775,29.195,5.819
4318,250.707,29.131,5.691
4352,250.491,28.704,5.58
4385,250.282,28.225,5.453
4418,250.226,28.147,5.408
4451,250.267,28.323,5.39
4485,250.293,28.534,5.31
4517,250.329,28.78,5.253
4551,250.436,29.144,5.202
4584,250.496,29.402,5.19
4617,250.499,29.524,5.096
4651,250.458,29.537,5.032
4684,250.44,29.63,4.998
4717,250.43,29.686,4.894
4750,250.449,29.831,4.853
4784,250.458,29.991,4.818
4817,250.473,30.129,4.765
4850,250.448,30.159,4.663
4883,250.395,30.122,4.614
4916,250.345,30.128,4.515
4950,250.367,30.293,4.497
4983,250.392,30.466,4.501
5016,250.309,30.385,4.386
5049,250.158,30.127,4.289
5083,249.949,29.708,4.201
5149,249.948,29.884,4.128
5182,250.048,30.192,4.113
5215,250.059,30.309,4.054
5249,250.158,30.653,4.082
5282,250.156,30.74,4.041
5315,250.192,30.872,4.006
5348,250.221,31.006,4.026
5381,250.22,31.052,4.006
5415,250.232,31.148,3.972
5448,250.302,31.31,3.952
5481,250.344,31.481,4.007
5514,250.364,31.558,3.978
5548,250.385,31.658,3.977
5581,250.387,31.75,3.956
5614,250.351,31.703,3.9
5647,250.37,31.785,3.895
5680,250.347,31.802,3.864
5714,250.305,31.767,3.853
5747,250.283,31.756,3.822
5780,250.147,31.427,3.776
5813,250.073,31.256,3.79
5847,250.086,31.316,3.76
5880,250.09,31.376,3.716
5913,250.106,31.441,3.697
5946,250.081,31.5,3.662
5979,250.147,31.705,3.678
6013,250.108,31.675,3.61
6046,250.075,31.683,3.563
6079,250.096,31.778,3.526
6112,250.069,31.823,3.532
6146,250.089,31.914,3.483
6179,250.075,31.988,3.469
6212,250.065,32.042,3.451
6245,250.074,32.095,3.399
6278,250.085,32.184,3.381
6312,250.062,32.247,3.376
6345,250.048,32.265,3.313
6378,250.068,32.409,3.296
6411,250.024,32.411,3.27
6445,249.873,32.184,3.172
6478,249.728,31.87,3.121
6511,249.635,31.712,3.092
6544,249.64,31.787,3.102
6577,249.695,31.963,3.079
6611,249.703,32.05,3.026
6644,249.723,32.185,3.034
6677,249.77,32.338,2.991
6710,249.804,32.499,3.015
6744,249.787,32.508,2.984
6777,249.766,32.558,2.989
6810,249.719,32.51,2.933
6843,249.718,32.526,2.931
6876,249.755,32.688,2.914
6910,249.733,32.663,2.884
6943,249.753,32.758,2.864
6976,249.743,32.802,2.854
7009,249.71,32.76,2.83
7042,249.708,32.816,2.816
7076,249.755,32.978,2.814
7109,249.75,33.015,2.81
7142,249.754,33.058,2.767
7175,249.677,32.989,2.763
7209,249.5,32.634,2.699
7242,249.411,32.451,2.699
7275,249.392,32.417,2.676
7308,249.421,32.555,2.675
7341,249.453,32.651,2.638
7408,249.473,32.76,2.609
7441,249.482,32.835,2.614
7473,249.487,32.896,2.615
7508,249.463,32.873,2.589
7541,249.441,32.877,2.577
7574,249.436,32.865,2.531
7607,249.42,32.878,2.556
7640,249.452,32.925,2.52
7674,249.452,33.003,2.531
7707,249.428,32.964,2.478
7740,249.427,32.998,2.518
7773,249.41,32.98,2.497
7807,249.43,33.017,2.498
7840,249.4,32.987,2.474
7873,249.408,32.969,2.437
7906,249.426,33.064,2.476
7939,249.327,32.895,2.44
7973,249.113,32.425,2.4
8006,249.056,32.269,2.419
8039,249.034,32.202,2.43
8071,249.1,32.35,2.427
8106,249.108,32.391,2.419
8139,249.161,32.526,2.408
8172,249.172,32.557,2.388
8205,249.164,32.574,2.386
8238,249.132,32.508,2.37
8272,249.105,32.478,2.337
8305,249.129,32.573,2.358
8338,249.149,32.632,2.345
8371,249.154,32.674,2.339
8405,249.184,32.769,2.356
8438,249.224,32.866,2.366
8471,249.207,32.84,2.36
8537,249.266,32.982,2.338
8571,249.249,32.969,2.342
8604,249.281,33.056,2.331
8637,249.259,33.028,2.328
8669,249.122,32.807,2.226
8703,248.965,32.491,2.219
8737,248.824,32.176,2.239
8770,248.852,32.208,2.255
8803,248.89,32.3,2.232
8870,248.948,32.553,2.228
8903,249.012,32.745,2.234
8936,249.033,32.816,2.215
8969,249.017,32.832,2.208
9002,249.011,32.842,2.208
9036,248.993,32.819,2.171
9069,249.006,32.892,2.171
9102,249.023,32.952,2.162
9135,249.035,32.998,2.17
9169,249.0,32.873,2.154
9202,248.985,32.856,2.164
9235,248.97,32.797,2.174
9267,248.966,32.784,2.173
9301,248.959,32.784,2.181
9335,248.936,32.72,2.168
9368,248.982,32.842,2.178
9401,248.96,32.795,2.181
9434,248.947,32.805,2.15
9468,248.768,32.483,2.098
9501,248.535,31.986,2.106
9534,248.397,31.525,2.072
9567,248.432,31.6,2.109
9600,248.525,31.88,2.116
9634,248.546,31.971,2.094
9667,248.555,32.014,2.095
9700,248.549,31.999,2.085
9733,248.577,32.111,2.066
9767,248.55,32.132,2.046
9800,248.482,32.065,2.032
9833,248.512,32.176,2.038
9866,248.528,32.276,2.035
9899,248.578,32.47,2.036
9933,248.604,32.59,2.003
9966,248.647,32.754,2.022
9999,248.629,32.741,1.987
10032,248.655,32.831,1.967
10066,248.63,32.855,1.974
10098,248.598,32.832,1.949
10132,248.61,32.854,1.933
10165,248.621,32.916,1.94
10198,248.624,32.955,1.939
10232,248.403,32.476,1.937
10265,248.018,31.39,1.948
10298,247.755,30.453,2.001
10331,247.713,30.162,2.064
10364,247.717,30.156,2.068
10398,247.771,30.274,2.042
10431,247.864,30.529,2.055
10464,247.955,30.787,2.038
10497,247.991,31.008,2.023
10531,248.025,31.14,2.011
10564,248.017,31.209,1.987
10597,248.073,31.359,1.992
10630,248.118,31.479,1.949
10663,248.194,31.738,1.977
10696,248.253,31.887,1.95
10730,248.292,31.994,1.944
10763,248.329,32.15,1.941
10796,248.365,32.245,1.931
10830,248.383,32.385,1.923
10863,248.438,32.556,1.94
10896,248.413,32.524,1.906
10929,248.374,32.496,1.894
10962,248.413,32.609,1.867
10996,248.434,32.769,1.888
11029,248.379,32.719,1.852
11062,248.067,32.072,1.837
11095,247.745,31.026,1.888
11129,247.564,30.312,1.933
11162,247.596,30.31,1.983
11195,247.652,30.459,1.956
11228,247.673,30.558,1.914
11261,247.716,30.755,1.916
11294,247.81,31.073,1.925
11328,247.851,31.273,1.882
11361,247.814,31.255,1.846
11394,247.863,31.423,1.873
11428,247.874,31.457,1.825
11461,247.921,31.634,1.829
11494,247.96,31.828,1.837
11527,248.041,32.049,1.788
11560,248.098,32.253,1.817
11594,248.124,32.381,1.792
11627,248.166,32.544,1.78
11660,248.187,32.59,1.766
11693,248.207,32.726,1.782
11727,248.23,32.81,1.745
11760,248.239,32.882,1.765
11793,248.272,33.014,1.744
11826,248.269,33.058,1.704
11859,248.262,33.111,1.711
11892,248.101,32.873,1.666
11926,247.777,31.994,1.684
11959,247.539,31.156,1.76
11992,247.51,30.993,1.761
12025,247.641,31.352,1.755
12059,247.682,31.621,1.75
12092,247.816,32.008,1.733
12125,247.91,32.376,1.711
12158,247.98,32.644,1.675
12192,247.954,32.671,1.642
12225,247.983,32.81,1.659
12258,247.983,32.895,1.632
12291,248.062,33.119,1.639
12324,248.136,33.329,1.64
12358,248.152,33.416,1.627
12391,248.189,33.555,1.619
12424,248.229,33.7,1.603
12457,248.305,33.903,1.607
12491,248.291,33.952,1.582
12524,248.336,34.11,1.61
12557,248.34,34.133,1.6
12590,248.349,34.228,1.596
12623,248.278,34.09,1.531
12657,248.259,34.122,1.542
12690,248.116,33.9,1.505
12723,247.845,33.334,1.5
12756,247.559,32.348,1.559
12790,247.492,31.871,1.611
12823,247.544,31.98,1.613
12856,247.657,32.308,1.586
12889,247.694,32.551,1.569
12922,247.827,32.901,1.564
12956,247.949,33.271,1.557
12989,247.933,33.336,1.536
13022,247.848,33.263,1.516
13055,247.876,33.325,1.508
13089,247.944,33.514,1.519
13122,247.971,33.636,1.517
13155,248.03,33.825,1.509
13188,248.027,33.828,1.476
13221,248.107,34.071,1.487
13255,248.128,34.179,1.5
13288,248.133,34.239,1.469
13321,248.117,34.297,1.469
13354,248.207,34.505,1.474
13388,248.209,34.598,1.484
13454,248.208,34.687,1.444
13487,248.222,34.756,1.43
13520,248.178,34.727,1.415
13554,247.85,34.026,1.41
13587,247.543,32.921,1.459
13620,247.327,32.105,1.522
13653,247.308,32.037,1.51
13686,247.434,32.379,1.495
13720,247.543,32.761,1.506
13753,247.606,33.035,1.467
13786,247.684,33.368,1.45
13819,247.708,33.56,1.445
13853,247.774,33.762,1.422
13886,247.796,33.864,1.429
13919,247.758,33.879,1.39
13952,247.801,34.062,1.395
13985,247.917,34.393,1.393
14019,247.955,34.55,1.375
14052,247.967,34.713,1.408
14085,248.018,34.834,1.362
14118,248.049,34.934,1.337
14185,248.09,35.186,1.351
14218,248.083,35.24,1.328
14251,248.088,35.288,1.321
14284,248.087,35.362,1.304
14318,248.121,35.459,1.314
14351,248.103,35.487,1.293
14384,247.965,35.264,1.297
14417,247.593,34.196,1.275
14451,247.36,33.236,1.361
14484,247.316,32.91,1.393
14517,247.374,33.098,1.372
14550,247.415,33.397,1.369
14583,247.482,33.658,1.347
14617,247.565,34.01,1.328
14650,247.633,34.27,1.317
14683,247.635,34.395,1.291
14716,247.608,34.382,1.281
14750,247.617,34.438,1.298
14783,247.649,34.567,1.288
14816,247.66,34.692,1.27
14848,247.727,34.871,1.291
14882,247.733,34.942,1.271
14916,247.767,35.092,1.254
14949,247.738,35.083,1.241
15015,247.741,35.187,1.223
15049,247.869,35.458,1.245
15082,247.891,35.534,1.233
15115,247.853,35.541,1.219
15148,247.875,35.603,1.211
15181,247.747,35.436,1.214
15215,247.395,34.532,1.193
15248,247.132,33.387,1.254
15281,247.057,32.932,1.306
15314,247.098,33.063,1.277
15347,247.271,33.595,1.291
15381,247.363,33.971,1.28
15414,247.509,34.425,1.257
15446,247.568,34.705,1.227
15480,247.547,34.815,1.216
15514,247.535,34.846,1.211
15547,247.566,34.979,1.207
15580,247.637,35.237,1.219
15613,247.721,35.539,1.188
15646,247.803,35.818,1.178
15680,247.844,35.947,1.176
15713,247.865,36.065,1.153
15746,247.868,36.174,1.164
15779,247.896,36.271,1.149
15813,247.9,36.368,1.154
15846,247.877,36.377,1.128
15879,247.906,36.494,1.13
15912,247.92,36.59,1.133
15945,247.946,36.654,1.13
15979,247.931,36.697,1.111
16012,247.789,36.469,1.092
16044,247.421,35.414,1.116
16078,247.151,34.211,1.161
16112,247.089,33.722,1.225
16145,247.136,33.828,1.226
16178,247.194,34.051,1.221
16211,247.22,34.248,1.206
16244,247.332,34.63,1.197
16278,247.407,35.031,1.165
16311,247.454,35.262,1.16
16344,247.381,35.205,1.122
16377,247.383,35.238,1.128
16411,247.435,35.395,1.119
16444,247.518,35.717,1.125
16477,247.577,35.923,1.108
16510,247.669,36.199,1.109
16543,247.689,36.33,1.1
16577,247.734,36.538,1.106
16610,247.731,36.574,1.098
16642,247.724,36.622,1.07
16676,247.633,36.568,1.044
16710,247.65,36.663,1.048
16743,247.618,36.652,1.042
16776,247.643,36.757,1.026
16809,247.706,36.942,1.036
16842,247.583,36.733,1.026
16876,247.209,35.567,1.037
16909,246.89,34.028,1.134
16942,246.724,33.218,1.188
16975,246.722,33.142,1.178
17008,246.774,33.297,1.179
17042,246.851,33.525,1.175
17075,246.964,33.919,1.149
17108,247.071,34.425,1.14
17141,247.108,34.707,1.122
17175,247.043,34.62,1.086
17208,247.046,34.64,1.089
17241,247.118,34.901,1.102
17274,247.155,35.085,1.069
17307,247.188,35.308,1.063
17341,247.3,35.626,1.063
17374,247.358,35.782,1.05
17407,247.365,35.953,1.051
17440,247.337,35.915,1.037
17473,247.277,35.854,0.993
17507,247.302,35.978,1.022
17540,247.338,36.095,1.016
17573,247.345,36.206,1.0
17606,247.349,36.275,1.012
17640,247.177,35.812,1.006
17673,246.67,34.156,1.038
17706,246.519,33.05,1.148
17739,246.534,32.795,1.152
17773,246.566,32.974,1.155
17806,246.736,33.437,1.141
17839,246.902,34.054,1.135
17872,247.049,34.634,1.103
17905,247.115,34.96,1.074
17939,247.108,35.052,1.069
17972,247.093,35.073,1.08
18005,247.143,35.213,1.071
18038,247.214,35.473,1.05
18071,247.281,35.778,1.052
18105,247.356,36.029,1.025
18138,247.374,36.198,1.024
18171,247.418,36.351,1.003
18204,247.475,36.542,0.998
18238,247.485,36.644,0.996
18271,247.518,36.775,1.008
18304,247.532,36.876,1.004
18337,247.539,36.945,0.97
18371,247.527,36.948,0.987
18404,247.273,36.335,0.984
18437,246.822,34.655,1.051
18503,246.43,32.649,1.151
18537,246.5,32.683,1.146
18570,246.515,32.791,1.155
18603,246.529,32.878,1.135
18636,246.618,33.252,1.123
18669,246.768,33.765,1.115
18703,246.841,34.074,1.096
18736,246.904,34.232,1.111
18769,246.933,34.32,1.111
18802,247.003,34.583,1.11
18836,247.087,34.878,1.075
18869,247.2,35.174,1.073
18902,247.278,35.498,1.073
18935,247.321,35.681,1.06
18968,247.354,35.869,1.055
19002,247.42,36.103,1.059
19035,247.423,36.221,1.062
19068,247.424,36.285,1.043
19101,247.463,36.432,1.043
19135,247.527,36.666,1.026
19168,247.547,36.865,1.028
19201,247.536,36.995,1.015
19234,247.306,36.325,1.01
19267,246.897,34.724,1.07
19301,246.602,33.378,1.134
19334,246.472,32.811,1.159
19367,246.543,32.924,1.182
19400,246.588,33.109,1.147
19434,246.587,33.376,1.13
19467,246.707,33.944,1.091
19500,246.845,34.555,1.057
19533,246.903,34.918,1.047
19566,246.938,35.127,1.026
19600,246.956,35.312,1.041
19633,247.041,35.622,1.012
19666,247.071,35.871,0.963
19699,247.13,36.231,0.971
19733,247.215,36.54,0.959
19766,247.258,36.847,0.953
19799,247.34,37.083,0.953
19832,247.33,37.211,0.944
19865,247.356,37.325,0.917
19899,247.37,37.488,0.917
19932,247.469,37.715,0.916
19965,247.438,37.752,0.903
19998,247.462,37.937,0.909
20032,247.453,38.006,0.91
20065,247.548,38.203,0.91
20098,247.478,38.194,0.883
20131,247.217,37.594,0.872
20164,246.809,36.058,0.919
20198,246.615,35.027,0.948
20231,246.554,34.825,0.969
20264,246.61,35.19,0.961
20297,246.661,35.644,0.931
20330,246.73,36.081,0.892
20364,246.782,36.464,0.859
20397,246.822,36.792,0.834
20430,246.892,37.039,0.84
20463,246.865,37.023,0.848
20497,246.904,37.121,0.821
20530,246.993,37.405,0.849
20563,247.076,37.65,0.824
20596,247.215,38.037,0.828
20629,247.254,38.291,0.825
20663,247.254,38.365,0.81
20696,247.299,38.534,0.814
20729,247.312,38.588,0.798
20762,247.379,38.779,0.813
20796,247.423,38.937,0.827
20829,247.415,39.008,0.806
20862,247.476,39.194,0.81
20895,247.47,39.237,0.803
20928,247.479,39.298,0.789
20962,247.367,39.151,0.784
20995,247.002,38.066,0.794
21028,246.695,36.737,0.83
21061,246.644,36.292,0.846
21095,246.654,36.461,0.836
21128,246.76,36.913,0.825
21161,246.816,37.297,0.804
21194,246.9,37.697,0.801
21227,246.995,38.119,0.783
21261,247.041,38.383,0.776
21294,247.078,38.531,0.774
21327,247.072,38.583,0.767
21360,247.122,38.821,0.756
21394,247.184,39.107,0.752
21427,247.224,39.307,0.735
21460,247.299,39.565,0.731
21493,247.315,39.708,0.71
21526,247.275,39.686,0.704
21560,247.311,39.819,0.708
21593,247.346,39.93,0.698
21626,247.363,40.04,0.695
21659,247.397,40.159,0.708
21693,247.375,40.16,0.699
21726,247.394,40.262,0.687
21759,247.381,40.29,0.704
21792,247.412,40.353,0.678
21825,247.277,40.166,0.693
21859,246.892,38.909,0.7
21892,246.481,37.007,0.76
21925,246.267,35.87,0.819
21958,246.28,35.859,0.812
21991,246.306,36.082,0.81
22025,246.401,36.465,0.791
22058,246.505,36.888,0.774
22091,246.675,37.447,0.764
22124,246.709,37.742,0.761
22158,246.751,37.956,0.753
22191,246.725,37.937,0.757
22223,246.77,38.113,0.739
22257,246.854,38.404,0.735
22324,247.04,39.085,0.714
22357,247.114,39.356,0.721
22390,247.113,39.412,0.702
22423,247.129,39.473,0.705
22457,247.145,39.481,0.714
22490,247.102,39.387,0.725
22523,247.036,39.221,0.71
22556,247.01,39.168,0.692
22589,247.069,39.35,0.7
22623,247.109,39.521,0.718
22656,247.132,39.649,0.691
22689,247.076,39.579,0.688
22722,246.728,38.48,0.7
22756,246.363,36.728,0.763
22789,246.186,35.53,0.845
22821,246.146,35.273,0.863
22855,246.231,35.505,0.844
22888,246.398,36.012,0.844
22922,246.526,36.525,0.835
22955,246.514,36.828,0.78
22988,246.602,37.167,0.774
23021,246.565,37.207,0.77
23055,246.558,37.168,0.767
23088,246.603,37.335,0.76
23121,246.702,37.714,0.765
23154,246.81,38.084,0.755
23221,246.941,38.755,0.728
23254,246.975,38.971,0.733
23287,247.018,39.176,0.707
23320,247.052,39.291,0.699
23354,247.121,39.494,0.694
23387,247.134,39.605,0.709
23419,247.14,39.706,0.69
23453,247.143,39.79,0.691
23486,247.144,39.847,0.681
23520,247.121,39.856,0.676
23553,246.721,38.692,0.687
23586,246.382,37.144,0.748
23619,246.193,36.015,0.792
23652,246.169,35.792,0.809
23686,246.236,36.1,0.78
23719,246.374,36.59,0.791
23752,246.412,36.924,0.761
23785,246.514,37.363,0.726
23819,246.546,37.664,0.722
23852,246.559,37.785,0.719
23885,246.583,37.843,0.738
23918,246.606,37.993,0.728
23951,246.713,38.411,0.716
23985,246.803,38.761,0.699
24051,246.857,39.22,0.664
24084,246.973,39.569,0.685
24118,246.956,39.662,0.656
24151,246.979,39.835,0.658
24184,247.022,39.939,0.642
24217,247.044,40.077,0.648
24284,247.127,40.414,0.644
24317,247.204,40.621,0.649
24350,247.04,40.336,0.616
24383,246.641,39.036,0.651
24417,246.255,37.242,0.712
24450,246.051,36.104,0.765
24483,246.041,35.928,0.769
24516,246.17,36.321,0.759
24583,246.306,37.063,0.745
24616,246.409,37.543,0.72
24649,246.461,37.868,0.687
24682,246.456,38.007,0.687
24716,246.473,38.083,0.696
24749,246.485,38.167,0.684
24782,246.545,38.485,0.663
24815,246.636,38.894,0.67
24848,246.675,39.167,0.655
24882,246.743,39.452,0.639
24915,246.82,39.743,0.637
24948,246.835,39.851,0.613
24981,246.876,40.03,0.629
25015,246.888,40.068,0.6
25048,246.91,40.248,0.612
25081,246.935,40.381,0.602
25147,247.021,40.753,0.612
25181,246.873,40.408,0.599
25214,246.463,38.916,0.634
25247,246.07,37.023,0.696
25280,245.933,36.096,0.736
25313,245.976,36.11,0.736
25347,246.04,36.476,0.715
25380,246.235,37.181,0.716
25413,246.313,37.663,0.682
25446,246.401,38.111,0.671
25480,246.487,38.43,0.668
25513,246.516,38.426,0.686
25546,246.566,38.569,0.683
25579,246.643,38.758,0.666
25612,246.664,39.009,0.657
25646,246.738,39.33,0.674
25712,246.909,39.889,0.644
25745,246.901,39.981,0.636
25779,246.903,40.068,0.635
25812,246.85,40.017,0.627
25878,246.927,40.22,0.611
25911,246.944,40.315,0.62
25945,246.877,40.226,0.611
25978,246.635,39.416,0.618
26011,246.25,37.701,0.682
26044,246.043,36.445,0.73
26078,246.035,36.113,0.761
26111,246.023,36.242,0.739
26144,246.083,36.576,0.737
26177,246.122,36.884,0.711
26210,246.213,37.391,0.699
26244,246.341,37.832,0.684
26277,246.318,37.946,0.667
26310,246.283,37.916,0.673
26343,246.328,38.047,0.648
26377,246.379,38.326,0.656
26410,246.485,38.742,0.636
26443,246.589,39.156,0.636
26476,246.645,39.494,0.618
26509,246.734,39.804,0.611
26543,246.813,40.048,0.607
26576,246.759,40.059,0.614
26609,246.776,40.161,0.592
26642,246.832,40.344,0.6
26676,246.844,40.396,0.588
26709,246.808,40.423,0.576
26742,246.781,40.392,0.585
26775,246.447,39.134,0.615
26808,246.027,37.214,0.672
26842,245.871,35.98,0.753
26875,245.839,35.656,0.748
26908,245.857,35.81,0.731
26941,245.897,36.108,0.73
26973,245.964,36.497,0.725
27008,246.036,36.953,0.682
27041,246.085,37.32,0.665
27074,246.085,37.412,0.647
27107,246.072,37.409,0.666
27141,246.085,37.493,0.651
27174,246.15,37.857,0.656
27207,246.209,38.244,0.639
27240,246.305,38.646,0.613
27273,246.407,39.023,0.599
27307,246.467,39.33,0.609
27340,246.515,39.605,0.596
27373,246.491,39.642,0.584
27406,246.596,39.943,0.586
27440,246.505,39.901,0.57
27473,246.615,40.199,0.575
27506,246.632,40.285,0.545
27539,246.599,40.353,0.539
27571,246.481,40.08,0.567
27606,246.079,38.387,0.594
27639,245.727,36.48,0.684
27672,245.576,35.37,0.718
27705,245.542,35.215,0.712
27739,245.682,35.605,0.72
27772,245.721,35.903,0.71
27805,245.861,36.507,0.679
27838,245.883,36.983,0.665
27871,245.863,37.166,0.644
27905,245.878,37.169,0.643
27938,245.903,37.24,0.637
27971,245.951,37.474,0.626
28004,246.033,37.844,0.611
28038,246.116,38.242,0.619
28071,246.16,38.568,0.596
28104,246.269,38.927,0.581
28137,246.29,39.105,0.595
28169,246.369,39.374,0.574
28204,246.372,39.468,0.564
28237,246.373,39.571,0.562
28270,246.379,39.699,0.556
28303,246.448,39.888,0.558
28337,246.446,40.034,0.537
28370,246.268,39.562,0.547
28403,245.797,37.649,0.604
28469,245.151,34.431,0.711
28536,245.449,34.857,0.75
28602,245.601,35.561,0.719
28635,245.706,36.199,0.699
28669,245.696,36.467,0.655
28702,245.685,36.57,0.648
28735,245.718,36.729,0.648
28767,245.8,37.051,0.625
28802,245.876,37.458,0.621
28835,245.94,37.842,0.603
28868,246.028,38.24,0.589
28901,246.079,38.575,0.589
28934,246.119,38.834,0.569
28968,246.162,39.063,0.568
29001,246.197,39.195,0.554
29034,246.233,39.393,0.545
29067,246.267,39.58,0.545
29101,246.349,39.78,0.545
29134,246.326,39.856,0.549
29167,246.319,39.904,0.536
29200,246.163,39.475,0.533
29233,245.672,37.391,0.586
29267,245.195,34.909,0.697
29300,244.932,33.453,0.77
29333,244.996,33.328,0.79
29366,245.111,33.614,0.779
29400,245.181,33.843,0.761
29433,245.267,34.27,0.757
29466,245.393,34.893,0.722
29499,245.485,35.375,0.696
29532,245.436,35.452,0.688
29566,245.476,35.539,0.677
29598,245.541,35.796,0.675
29665,245.697,36.526,0.648
29699,245.769,36.907,0.636
29732,245.765,37.144,0.62
29765,245.841,37.44,0.599
29798,245.864,37.703,0.591
29831,245.928,37.906,0.588
29865,245.985,38.162,0.592
29898,245.976,38.255,0.567
29964,246.115,38.728,0.575
29998,246.116,38.9,0.565
30031,246.123,38.934,0.57
30064,245.75,37.702,0.593
30097,245.25,35.412,0.654
30130,244.868,33.488,0.741
30196,244.932,33.089,0.767
30230,244.996,33.357,0.772
30263,245.072,33.762,0.748
30296,245.23,34.457,0.714
30330,245.25,34.884,0.705
30363,245.247,35.001,0.672
30396,245.271,35.041,0.675
30429,245.305,35.245,0.671
30463,245.382,35.61,0.653
30496,245.469,36.06,0.633
30529,245.547,36.458,0.625
30562,245.616,36.76,0.616
30595,245.652,36.965,0.608
30629,245.66,37.131,0.614
30662,245.67,37.262,0.598
30728,245.807,37.755,0.587
30762,245.83,37.925,0.581
30828,245.547,37.2,0.557
30861,245.093,34.992,0.673
30894,244.476,32.213,0.777
30928,244.329,30.958,0.854
30961,244.347,30.832,0.865
30994,244.522,31.152,0.874
31027,244.55,31.349,0.839
31061,244.691,31.78,0.841
31094,244.824,32.286,0.811
31127,244.857,32.587,0.789
31160,244.823,32.684,0.806
31193,244.81,32.743,0.766
31227,244.954,33.162,0.748
31260,245.089,33.764,0.743
31293,245.233,34.424,0.72
31326,245.315,34.927,0.7
31360,245.392,35.332,0.668
31392,245.476,35.686,0.666
31426,245.501,35.945,0.665
31459,245.561,36.167,0.645
31492,245.553,36.285,0.637
31526,245.542,36.409,0.619
31559,245.595,36.589,0.616
31592,245.564,36.554,0.635
31625,245.034,34.703,0.664
31692,244.063,29.807,0.913
31725,244.093,29.381,0.955
31758,244.159,29.466,0.953
31791,244.301,29.747,0.929
31825,244.505,30.2,0.933
31858,244.55,30.6,0.901
31891,244.678,31.121,0.877
31924,244.706,31.362,0.871
31957,244.723,31.38,0.853
31991,244.747,31.527,0.855
32024,244.799,31.825,0.833
32057,244.872,32.24,0.809
32090,244.99,32.808,0.768
32124,245.173,33.392,0.748
32157,245.244,33.773,0.738
32190,245.332,34.145,0.74
32223,245.384,34.356,0.718
32256,245.404,34.513,0.719
32290,245.45,34.705,0.711
32323,245.509,34.919,0.711
32356,245.53,35.115,0.714
32389,245.477,35.093,0.687
32423,245.093,33.97,0.696
32456,244.547,31.628,0.788
32489,244.248,30.058,0.901
32522,244.235,29.757,0.932
32555,244.367,30.07,0.903
32589,244.545,30.606,0.879
32622,244.772,31.335,0.86
32655,245.084,32.367,0.85
32688,245.215,32.901,0.811
32722,245.215,33.008,0.804
32755,245.271,33.153,0.817
32788,245.317,33.381,0.795
32821,245.37,33.717,0.77
32854,245.475,34.117,0.765
32888,245.485,34.396,0.743
32921,245.604,34.812,0.732
32954,245.612,35.061,0.72
32987,245.67,35.356,0.72
33021,245.567,35.374,0.686
33054,245.781,35.901,0.68
33087,245.758,36.024,0.665
33120,245.59,35.657,0.673
33153,245.167,34.055,0.705
33187,244.861,32.633,0.775
33220,244.765,32.081,0.81
33253,244.848,32.39,0.787
33286,245.038,33.109,0.77
33320,245.175,33.755,0.737
33386,245.376,34.826,0.695
33419,245.377,34.866,0.695
33452,245.268,34.597,0.69
33486,245.243,34.591,0.686
33519,245.35,34.911,0.673
33552,245.487,35.389,0.665
33585,245.558,35.749,0.661
33618,245.655,36.085,0.653
33652,245.689,36.256,0.637
33685,245.747,36.426,0.636
33718,245.702,36.466,0.63
33751,245.653,36.384,0.627
33785,245.274,35.075,0.664
33818,244.807,33.097,0.73
33851,244.581,31.697,0.817
33884,244.632,31.502,0.828
33917,244.712,31.795,0.807
33951,244.766,32.157,0.782
33984,244.854,32.687,0.751
34017,244.996,33.284,0.736
34050,245.071,33.609,0.735
34084,245.031,33.543,0.73
34117,244.925,33.335,0.722
34150,244.984,33.495,0.712
34183,245.037,33.752,0.691
34216,245.149,34.221,0.687
34250,245.223,34.612,0.677
34283,245.293,34.951,0.649
34316,245.357,35.289,0.66
34348,245.396,35.558,0.639
34383,245.453,35.782,0.64
34416,245.225,35.205,0.638
34449,244.678,32.998,0.719
34482,243.964,29.91,0.844
34515,243.684,28.33,0.962
34549,243.679,27.964,0.988
34582,243.639,27.77,1.015
34615,243.551,27.532,0.985
34648,243.645,27.683,1.004
34682,243.869,28.271,0.999
34748,244.077,29.036,0.955
34781,244.108,29.19,0.929
34814,244.144,29.45,0.92
34848,244.276,29.954,0.904
34881,244.48,30.693,0.865
34914,244.637,31.321,0.833
34946,244.787,31.973,0.807
34981,244.974,32.714,0.793
35014,244.995,33.11,0.75
35047,245.099,33.504,0.727
35080,245.213,33.889,0.713
35113,244.981,33.302,0.746
35147,244.466,31.349,0.804
35180,243.781,28.739,0.966
35213,243.599,27.657,0.998
35246,243.583,27.481,1.018
35279,243.587,27.458,1.029
35313,243.646,27.513,1.022
35346,243.762,27.903,1.004
35379,243.95,28.573,0.972
35412,244.112,29.112,0.932
35446,244.171,29.406,0.933
35479,244.226,29.552,0.907
35544,244.315,30.128,0.861
35578,244.38,30.543,0.842
35612,244.413,30.908,0.804
35645,244.616,31.441,0.824
35678,244.805,31.909,0.805
35711,244.867,32.171,0.772
35745,244.927,32.416,0.777
35778,244.971,32.658,0.772
35811,244.938,32.799,0.757
35844,245.062,33.102,0.748
35877,245.07,33.33,0.727
35911,245.126,33.579,0.73
35944,245.197,33.858,0.715
35977,245.178,33.976,0.679
36010,244.992,33.326,0.721
36077,243.538,28.112,0.946
36110,243.47,27.35,1.002
36142,243.527,27.39,0.997
36176,243.607,27.54,0.995
36210,243.748,27.8,1.0
36243,243.939,28.287,0.977
36276,244.135,28.942,0.945
36309,244.286,29.413,0.932
36343,244.323,29.577,0.926
36376,244.265,29.598,0.89
36409,244.359,29.873,0.908
36442,244.451,30.244,0.872
36475,244.517,30.555,0.858
36509,244.575,30.831,0.871
36542,244.774,31.249,0.839
36575,244.889,31.592,0.844
36608,244.918,31.708,0.832
36642,244.966,31.897,0.813
36675,245.004,32.098,0.824
36708,245.043,32.294,0.811
36741,245.073,32.491,0.792
36774,245.131,32.737,0.8
36808,245.156,32.895,0.786
36841,245.168,33.095,0.758
36874,245.16,33.223,0.767
36907,244.94,32.611,0.75
36940,244.456,31.003,0.818
36973,243.979,29.324,0.889
37007,243.902,28.667,0.936
37040,244.047,28.87,0.934
37073,244.141,29.231,0.934
37107,244.273,29.647,0.889
37140,244.398,30.152,0.88
37173,244.475,30.581,0.848
37206,244.572,30.839,0.855
37273,244.547,30.948,0.862
37306,244.555,31.135,0.825
37339,244.567,31.383,0.792
37372,244.67,31.702,0.793
37406,244.744,32.054,0.769
37439,244.94,32.501,0.771
37472,244.95,32.699,0.754
37505,244.973,32.917,0.747
37538,245.062,33.167,0.756
37571,245.108,33.373,0.737
37605,245.07,33.415,0.731
37638,245.085,33.543,0.714
37671,245.12,33.69,0.693
37705,245.142,33.883,0.704
37738,245.112,33.836,0.688
37771,244.71,32.71,0.709
37804,244.171,30.77,0.779
37837,243.752,28.961,0.882
37871,243.702,28.539,0.911
37904,243.876,28.81,0.912
37937,243.998,29.179,0.902
37970,244.13,29.598,0.902
38004,244.325,30.176,0.857
38037,244.398,30.598,0.843
38070,244.426,30.752,0.812
38103,244.399,30.793,0.829
38136,244.438,30.968,0.811
38169,244.444,31.153,0.791
38203,244.53,31.492,0.775
38236,244.677,31.898,0.77
38269,244.748,32.241,0.752
38303,244.836,32.526,0.76
38336,244.924,32.831,0.759
38369,244.874,32.897,0.719
38402,244.896,33.069,0.72
38435,244.905,33.213,0.717
38469,244.945,33.373,0.692
38502,245.004,33.583,0.683
38535,245.063,33.839,0.683
38568,245.078,33.944,0.668
38601,245.062,33.956,0.678
38635,244.663,32.759,0.69
38701,243.914,29.532,0.868
38734,243.872,29.207,0.882
38767,243.926,29.407,0.856
38801,244.054,29.767,0.832
38834,244.193,30.141,0.839
38867,244.326,30.56,0.824
38900,244.4,30.881,0.805
38934,244.402,30.923,0.796
38967,244.385,30.96,0.799
39000,244.375,31.004,0.779
39033,244.407,31.219,0.775
39067,244.508,31.55,0.76
39100,244.6,31.9,0.76
39133,244.693,32.207,0.752
39166,244.751,32.474,0.726
39199,244.78,32.707,0.719
39233,244.797,32.929,0.714
39266,244.849,33.114,0.711
39299,244.902,33.307,0.698
39332,244.977,33.535,0.678
39366,244.96,33.669,0.68
39399,245.018,33.867,0.671
39432,245.083,34.101,0.671
39465,245.017,34.071,0.662
39498,244.716,33.199,0.672
39532,244.217,31.449,0.72
39565,243.85,29.98,0.796
39598,243.882,29.636,0.83
39631,244.035,30.0,0.833
39665,244.189,30.484,0.811
39698,244.287,30.88,0.775
39731,244.372,31.283,0.761
39764,244.422,31.59,0.756
39797,244.411,31.654,0.75
39831,244.401,31.657,0.751
39864,244.389,31.699,0.741
39897,244.469,31.961,0.739
39930,244.558,32.28,0.725
39964,244.653,32.698,0.711
39997,244.714,32.97,0.692
40030,244.773,33.288,0.695
40063,244.855,33.55,0.671
40096,244.92,33.806,0.688
40130,244.928,33.937,0.661
40163,244.946,34.057,0.648
40196,244.961,34.248,0.65
40229,244.962,34.387,0.626
40262,244.996,34.597,0.612
40296,244.917,34.46,0.619
40329,244.529,33.153,0.651
40362,244.138,31.632,0.703
40429,244.133,30.957,0.761
40462,244.264,31.449,0.739
40495,244.401,32.034,0.72
40528,244.507,32.561,0.7
40561,244.645,33.047,0.669
40595,244.628,33.102,0.68
40628,244.59,32.921,0.662
40661,244.514,32.802,0.677
40694,244.546,32.993,0.669
40728,244.631,33.342,0.662
40761,244.74,33.726,0.642
40794,244.735,33.981,0.629
40827,244.836,34.346,0.606
40860,244.899,34.632,0.596
40894,244.982,34.908,0.587
40927,245.001,35.11,0.596
40960,245.015,35.266,0.577
40993,245.065,35.506,0.58
41027,244.939,35.252,0.574
41060,244.5,33.796,0.617
41093,244.011,31.906,0.678
41126,243.782,30.57,0.747
41159,243.795,30.4,0.748
41193,243.968,30.859,0.743
41226,244.103,31.365,0.716
41259,244.152,31.813,0.684
41292,244.32,32.391,0.67
41359,244.321,32.588,0.661
41392,244.291,32.518,0.656
41425,244.35,32.703,0.657
41458,244.452,33.078,0.646
41492,244.497,33.467,0.624
41525,244.623,33.891,0.615
41558,244.713,34.266,0.601
41591,244.772,34.565,0.578
41625,244.807,34.83,0.581
41658,244.807,34.979,0.567
41691,244.808,35.13,0.551
41723,244.718,35.134,0.553
41757,244.443,34.116,0.577
41791,243.79,31.564,0.662
41824,243.105,28.778,0.782
41857,242.984,27.883,0.833
41890,242.974,27.71,0.849
41923,243.017,27.782,0.859
41957,242.997,27.783,0.847
41990,243.121,28.029,0.827
42023,243.142,28.338,0.808
42056,243.26,28.648,0.802
42090,243.277,28.706,0.794
42156,243.324,28.937,0.773
42189,243.539,29.489,0.772
42222,243.665,30.037,0.739
42256,243.788,30.545,0.698
42289,243.849,30.972,0.707
42321,243.962,31.368,0.68
42355,244.035,31.704,0.687
42389,244.077,31.903,0.645
42422,244.162,32.256,0.638
42455,244.026,32.09,0.648
42488,243.446,30.365,0.688
42521,242.564,27.117,0.84
42555,242.19,25.344,0.95
42588,242.113,24.78,0.993
42621,242.147,24.615,1.003
42654,242.16,24.516,1.036
42688,242.212,24.521,1.036
42721,242.308,24.779,1.007
42754,242.417,25.087,1.024
42787,242.488,25.216,1.012
42820,242.429,25.103,1.021
42854,242.413,25.06,1.004
42887,242.452,25.177,1.009
42919,242.572,25.475,0.99
42953,242.782,25.996,0.976
42987,242.886,26.422,0.933
43020,242.983,26.799,0.897
43053,243.107,27.238,0.885
43086,243.195,27.586,0.871
43119,243.308,27.921,0.854
43153,243.346,28.149,0.835
43186,243.387,28.384,0.83
43219,243.379,28.551,0.791
43252,243.44,28.801,0.786
43286,243.142,28.208,0.797
43319,242.218,25.61,0.908
43352,241.475,23.07,1.092
43385,241.183,21.975,1.167
43418,241.163,21.626,1.216
43452,241.199,21.505,1.237
43485,241.188,21.362,1.257
43517,241.236,21.363,1.259
43551,241.437,21.723,1.267
43584,241.674,22.15,1.245
43618,241.756,22.325,1.231
43651,241.8,22.414,1.241
43684,241.984,22.696,1.238
43717,242.173,23.182,1.188
43751,242.41,23.789,1.173
43784,242.594,24.278,1.125
43817,242.762,24.71,1.099
43850,242.884,25.063,1.069
43883,242.937,25.295,1.055
43917,242.986,25.464,1.026
43950,243.05,25.688,1.019
43983,243.099,25.917,1.03
44016,243.228,26.192,1.009
44050,243.309,26.426,0.977
44083,243.33,26.61,0.953
44116,243.416,26.844,0.942
44149,243.518,27.137,0.955
44182,243.504,27.221,0.924
44216,243.112,26.489,0.947
44249,242.226,24.316,1.054
44282,241.393,21.906,1.238
44315,241.123,20.973,1.318
44348,241.172,20.809,1.344
44382,241.208,20.802,1.368
44415,241.26,20.797,1.367
44448,241.375,20.934,1.372
44481,241.491,21.181,1.343
44515,241.55,21.394,1.29
44548,241.635,21.591,1.323
44581,241.565,21.523,1.298
44614,241.656,21.67,1.304
44648,241.76,21.907,1.28
44681,241.963,22.292,1.244
44714,242.134,22.765,1.249
44747,242.27,23.153,1.208
44780,242.43,23.562,1.187
44814,242.477,23.822,1.122
44847,242.517,24.064,1.094
44880,242.649,24.352,1.102
44913,242.741,24.623,1.083
44946,242.844,24.932,1.054
44980,242.937,25.209,1.049
45013,243.027,25.458,1.011
45046,243.117,25.727,1.001
45079,243.201,25.972,1.004
45113,243.286,26.207,0.987
45146,243.271,26.267,0.972
45179,242.614,25.027,1.018
45212,241.554,22.566,1.141
45245,241.032,20.855,1.297
45279,241.002,20.489,1.349
45312,241.123,20.577,1.372
45345,241.156,20.651,1.356
45378,241.262,20.851,1.357
45412,241.452,21.17,1.323
45445,241.603,21.539,1.31
45478,241.677,21.745,1.271
45511,241.68,21.82,1.26
45544,241.697,21.868,1.255
45578,241.81,22.123,1.233
45611,241.974,22.526,1.201
45644,242.214,23.057,1.181
45677,242.367,23.507,1.152
45711,242.512,23.88,1.125
45744,242.608,24.209,1.128
45777,242.7,24.477,1.086
45810,242.826,24.754,1.069
45843,242.91,24.966,1.055
45877,242.994,25.209,1.053
45910,243.057,25.432,1.04
45943,243.114,25.572,1.018
46010,243.328,26.057,1.013
46043,243.384,26.215,1.0
46076,243.156,25.878,0.989
46109,242.652,24.636,1.034
46142,241.9,22.863,1.16
46176,241.555,21.85,1.238
46209,241.601,21.823,1.266
46242,241.827,22.193,1.245
46275,242.113,22.682,1.24
46309,242.26,23.095,1.192
46342,242.473,23.584,1.175
46375,242.453,23.702,1.155
46408,242.403,23.626,1.147
46441,242.281,23.519,1.123
46475,242.363,23.68,1.113
46508,242.463,24.002,1.107
46541,242.629,24.379,1.068
46574,242.769,24.755,1.063
46608,242.881,25.095,1.026
46641,243.05,25.417,1.024
46674,243.101,25.632,1.005
46707,243.151,25.808,0.991
46740,243.223,25.995,0.988
46774,243.268,26.141,0.969
46807,243.305,26.303,0.962
46840,243.366,26.458,0.959
46873,243.466,26.629,0.954
46906,243.48,26.785,0.956
46940,243.303,26.472,0.948
46973,242.652,25.027,1.02
47039,241.489,21.906,1.204
47073,241.583,21.83,1.23
47106,241.763,22.117,1.22
47139,241.877,22.447,1.212
47172,242.092,22.86,1.19
47239,242.397,23.719,1.132
47272,242.356,23.785,1.103
47305,242.274,23.746,1.084
47338,242.331,23.911,1.093
47372,242.462,24.246,1.051
47405,242.599,24.626,1.038
47438,242.789,25.057,1.028
47471,242.884,25.385,0.986
47504,243.023,25.717,0.982
47538,243.089,25.943,0.977
47571,243.149,26.148,0.963
47604,243.207,26.326,0.947
47637,243.274,26.53,0.952
47671,243.302,26.648,0.91
47704,243.448,26.903,0.916
47770,243.509,27.171,0.899
47803,243.154,26.521,0.911
47837,242.363,24.68,0.985
47870,241.559,22.572,1.122
47903,241.317,21.711,1.2
47936,241.386,21.708,1.234
47970,241.558,21.93,1.218
48003,241.677,22.23,1.206
48036,241.868,22.602,1.181
48069,242.095,23.105,1.142
48102,242.194,23.458,1.129
48136,242.241,23.63,1.101
48169,242.172,23.628,1.096
48202,242.246,23.814,1.07
48235,242.44,24.21,1.041
48269,242.503,24.509,1.021
48302,242.618,24.898,0.999
48335,242.684,25.178,0.968
48368,242.718,25.39,0.933
48401,242.959,25.833,0.952
48435,243.011,26.035,0.936
48468,243.067,26.223,0.924
48501,243.167,26.447,0.91
48534,243.21,26.625,0.907
48567,243.157,26.697,0.883
48634,243.204,26.87,0.854
48667,242.649,25.627,0.899
48700,241.898,23.776,0.998
48734,241.385,22.249,1.119
48767,241.323,21.92,1.149
48800,241.491,22.144,1.158
48833,241.651,22.492,1.135
48866,241.777,22.821,1.104
48900,241.985,23.308,1.08
48933,242.147,23.72,1.062
48966,242.172,23.868,1.035
48999,242.173,23.921,1.049
49033,242.225,24.038,1.014
49066,242.352,24.354,1.013
49098,242.481,24.73,0.988
49132,242.649,25.125,0.945
49165,242.703,25.468,0.957
49199,242.853,25.83,0.928
49232,242.881,26.019,0.899
49265,242.954,26.254,0.891
49298,243.033,26.452,0.887
49332,243.033,26.538,0.864
49365,243.101,26.777,0.86
49398,243.127,26.891,0.848
49431,243.168,27.075,0.832
49464,243.149,27.029,0.841
49498,242.611,25.81,0.88
49531,241.904,23.964,0.974
49564,241.456,22.597,1.112
49597,241.394,22.286,1.129
49631,241.497,22.498,1.102
49664,241.758,22.991,1.094
49696,242.002,23.517,1.055
49730,242.155,23.996,1.023
49763,242.15,24.211,0.993
49797,242.098,24.181,0.99
49830,242.226,24.302,1.009
49863,242.273,24.447,0.989
49896,242.422,24.784,0.973
49930,242.503,25.104,0.955
49963,242.59,25.404,0.918
49996,242.758,25.808,0.91
50029,242.847,26.104,0.896
50062,242.877,26.266,0.863
50096,242.96,26.46,0.87
50129,243.042,26.706,0.876
50162,243.059,26.842,0.861
50195,243.072,26.942,0.846
50228,242.81,26.401,0.837
50262,242.117,24.77,0.918
50294,241.29,22.701,1.008
50328,240.999,21.771,1.11
50361,241.118,21.791,1.138
50395,241.308,22.036,1.131
50428,241.603,22.501,1.125
50461,241.651,22.815,1.064
50494,241.885,23.342,1.061
50527,241.967,23.616,1.066
50561,241.985,23.672,1.041
50594,242.02,23.737,1.032
50627,242.071,23.917,1.014
50660,242.12,24.185,0.984
50694,242.27,24.597,0.962
50727,242.401,24.979,0.933
50760,242.625,25.421,0.923
50793,242.717,25.711,0.914
50826,242.759,25.852,0.899
50860,242.799,26.027,0.89
50926,242.87,26.339,0.862
50959,242.911,26.51,0.86
50993,242.602,25.922,0.838
51026,241.841,24.209,0.911
51059,240.939,21.937,1.053
51092,240.742,21.044,1.146
51125,240.71,20.868,1.168
51159,240.869,21.057,1.168
51192,240.886,21.166,1.14
51225,241.117,21.585,1.139
51258,241.336,22.014,1.109
51292,241.501,22.377,1.131
51325,241.504,22.434,1.083
51358,241.527,22.524,1.093
51391,241.645,22.74,1.063
51424,241.799,23.136,1.065
51458,241.915,23.539,1.015
51491,242.045,23.905,0.997
51524,242.251,24.364,0.983
51557,242.379,24.68,0.954
51591,242.443,24.913,0.961
51624,242.484,25.093,0.942
51657,242.482,25.195,0.913
51690,242.587,25.423,0.911
51723,242.633,25.59,0.894
51757,242.751,25.846,0.892
51790,242.581,25.577,0.886
51823,242.027,24.287,0.933
51856,241.146,22.164,1.066
51889,240.691,20.895,1.152
51923,240.732,20.754,1.19
51956,240.798,20.859,1.181
51989,240.92,21.077,1.177
52022,241.112,21.429,1.146
52056,241.264,21.85,1.142
52089,241.359,22.079,1.107
52155,241.427,22.182,1.118
52188,241.528,22.352,1.101
52222,241.618,22.648,1.078
52255,241.774,22.998,1.057
52288,241.934,23.366,1.013
52321,242.091,23.731,1.025
52355,242.137,23.963,0.995
52388,242.205,24.186,0.978
52421,242.301,24.405,0.975
52454,242.326,24.523,0.963
52487,242.373,24.717,0.958
52521,242.412,24.877,0.916
52554,242.493,25.104,0.903
52587,242.34,24.779,0.91
52620,241.752,23.505,0.976
52654,240.938,21.624,1.119
52687,240.656,20.693,1.177
52720,240.773,20.73,1.214
52753,240.915,20.992,1.187
52786,241.161,21.403,1.177
52820,241.342,21.853,1.152
52853,241.433,22.194,1.117
52886,241.477,22.326,1.089
52919,241.403,22.294,1.091
52953,241.402,22.335,1.063
52986,241.536,22.552,1.064
53019,241.688,22.885,1.053
53085,241.926,23.49,1.011
53119,242.128,23.815,1.012
53152,242.189,23.973,1.008
53185,242.251,24.091,0.991
53218,242.297,24.218,0.997
53252,242.39,24.368,0.994
53285,242.455,24.497,0.98
53318,242.423,24.599,0.965
53351,242.595,24.906,0.969
53384,242.618,25.011,0.938
53418,242.249,24.421,0.962
53451,241.566,22.954,1.029
53484,240.693,20.866,1.172
53517,240.471,19.99,1.249
53550,240.453,19.839,1.282
53584,240.555,19.917,1.274
53617,240.576,19.972,1.278
53650,240.767,20.241,1.256
53683,241.039,20.715,1.256
53717,241.002,20.853,1.214
53750,241.036,20.927,1.209
53783,240.99,20.925,1.21
53816,241.15,21.137,1.197
53848,241.229,21.45,1.186
53883,241.547,21.959,1.155
53916,241.54,22.204,1.108
53949,241.672,22.501,1.085
53982,241.757,22.761,1.072
54016,241.953,23.082,1.055
54049,242.028,23.319,1.057
54082,242.108,23.532,1.05
54115,242.088,23.625,1.018
54148,242.171,23.827,1.008
54182,242.268,24.077,1.011
54215,242.321,24.295,0.972
54248,242.304,24.387,0.95
54281,241.942,23.742,0.966
54315,241.126,22.024,1.07
54348,240.265,19.893,1.215
54381,240.066,19.142,1.324
54414,240.128,19.038,1.336
54446,240.219,19.147,1.345
54481,240.332,19.293,1.336
54514,240.547,19.609,1.292
54547,240.725,20.066,1.31
54580,240.843,20.303,1.248
54614,240.815,20.371,1.252
54647,241.035,20.635,1.256
54680,241.096,20.843,1.244
54713,241.282,21.251,1.214
54746,241.387,21.586,1.16
54780,241.522,21.92,1.127
54813,241.739,22.347,1.129
54846,241.73,22.506,1.098
54879,241.897,22.819,1.102
54913,241.857,22.87,1.059
54946,241.957,23.081,1.062
54979,242.042,23.256,1.034
55012,242.134,23.497,1.052
55044,242.201,23.705,1.025
55079,242.237,23.872,1.017
55112,241.887,23.191,1.02
55145,241.141,21.693,1.102
55178,240.309,19.834,1.243
55211,240.164,19.206,1.29
55245,240.306,19.3,1.319
55278,240.514,19.62,1.326
55311,240.651,19.888,1.272
55344,240.932,20.435,1.269
55378,241.082,20.836,1.232
55411,241.121,21.008,1.212
55444,241.099,21.015,1.193
55477,241.144,21.157,1.186
55510,241.288,21.503,1.169
55544,241.305,21.773,1.111
55577,241.5,22.205,1.114
55610,241.652,22.517,1.09
55642,241.849,22.856,1.073
55677,241.91,23.06,1.052
55710,242.016,23.299,1.043
55743,241.965,23.357,1.025
55776,242.06,23.524,1.029
55809,242.08,23.598,0.996
55843,242.09,23.69,0.998
55876,242.125,23.805,0.979
55909,242.148,23.876,0.981
55942,241.662,22.97,1.015
55976,240.715,20.986,1.119
56009,239.911,19.067,1.273
56042,239.696,18.437,1.331
56075,239.809,18.475,1.353
56108,239.999,18.675,1.341
56142,240.078,18.837,1.364
56175,240.163,19.074,1.302
56208,240.321,19.45,1.266
56275,240.492,19.879,1.251
56308,240.649,20.082,1.237
56341,240.732,20.33,1.191
56374,240.839,20.699,1.167
56407,241.066,21.149,1.152
56441,241.193,21.49,1.127
56473,241.247,21.779,1.099
56507,241.394,22.063,1.074
56540,241.424,22.224,1.062
56574,241.459,22.385,1.033
56607,241.537,22.54,1.036
56640,241.666,22.794,1.035
56673,241.718,22.963,1.003
56706,241.811,23.206,1.0
56740,241.844,23.353,0.982
56773,241.501,22.779,0.988
56806,240.734,21.211,1.063
56839,239.854,19.184,1.222
56872,239.565,18.338,1.311
56906,239.643,18.315,1.339
56939,239.81,18.494,1.334
56972,239.934,18.712,1.314
57005,240.159,19.148,1.295
57039,240.328,19.537,1.238
57071,240.511,19.854,1.243
57138,240.665,20.092,1.254
57171,240.887,20.453,1.244
57205,241.05,20.863,1.195
57238,241.213,21.267,1.169
57271,241.368,21.655,1.149
57304,241.507,21.968,1.099
57338,241.607,22.256,1.081
57371,241.663,22.446,1.075
57404,241.791,22.673,1.052
57437,241.861,22.864,1.059
57470,241.893,23.045,1.031
57504,241.983,23.27,1.027
57537,241.844,23.08,1.03
57570,241.278,22.03,1.07
57603,240.652,20.555,1.163
57637,240.235,19.498,1.242
57669,240.295,19.436,1.291
57703,240.518,19.753,1.276
57736,240.632,20.069,1.253
57769,240.873,20.506,1.219
57803,241.017,20.899,1.162
57836,241.088,21.108,1.154
57902,241.056,21.148,1.15
57936,241.131,21.334,1.142
57969,241.341,21.725,1.124
58002,241.393,21.962,1.09
58035,241.538,22.28,1.086
58068,241.702,22.552,1.071
58102,241.724,22.741,1.06
58135,241.753,22.874,1.032
58168,241.813,23.033,1.033
58201,241.929,23.205,1.017
58235,241.875,23.275,1.011
58267,241.943,23.48,1.019
58301,241.773,23.224,0.99
58334,241.069,21.929,1.06
58367,240.109,19.794,1.174
58401,239.455,18.258,1.286
58434,239.428,17.942,1.344
58467,239.589,18.052,1.358
58500,239.754,18.237,1.366
58533,239.878,18.425,1.364
58567,240.12,18.802,1.347
58600,240.279,19.156,1.308
58633,240.352,19.382,1.278
58666,240.404,19.493,1.273
58700,240.469,19.65,1.256
58733,240.603,19.971,1.228
58766,240.782,20.369,1.196
58799,240.939,20.781,1.18
58832,241.066,21.118,1.143
58866,241.273,21.506,1.132
58899,241.418,21.82,1.131
58932,241.454,21.999,1.097
58965,241.468,22.122,1.091
58999,241.652,22.385,1.094
59032,241.659,22.47,1.067
59065,241.73,22.631,1.069
59098,241.498,22.317,1.066
59131,240.767,20.967,1.097
59165,239.726,18.802,1.269
59198,239.296,17.633,1.37
59231,239.294,17.443,1.404
59264,239.544,17.666,1.415
59298,239.65,17.843,1.404
59331,239.831,18.159,1.397
59364,240.117,18.631,1.353
59397,240.266,18.99,1.338
59430,240.334,19.175,1.314
59464,240.369,19.229,1.311
59497,240.449,19.4,1.3
59530,240.601,19.691,1.275
59563,240.759,20.049,1.246
59597,240.9,20.358,1.219
59630,241.01,20.684,1.201
59663,241.131,20.983,1.19
59696,241.165,21.168,1.158
59729,241.323,21.385,1.142
59763,241.481,21.652,1.138
59796,241.55,21.84,1.133
59829,241.621,22.057,1.135
59862,241.653,22.21,1.107
59896,241.729,22.364,1.105
59929,241.321,21.692,1.114
59962,240.56,20.222,1.212
59995,239.759,18.571,1.303
60028,239.573,18.037,1.351
60062,239.788,18.18,1.349
60095,240.01,18.509,1.363
60128,240.197,18.836,1.349
60161,240.42,19.269,1.302
60194,240.507,19.52,1.307
60228,240.582,19.608,1.291
60261,240.625,19.671,1.284
60294,240.637,19.714,1.27
60327,240.76,19.98,1.253
60361,240.943,20.369,1.234
60394,241.124,20.741,1.212
60427,241.302,21.13,1.205
60460,241.364,21.341,1.179
60493,241.461,21.575,1.145
60527,241.6,21.854,1.143
60560,241.691,22.096,1.129
60593,241.736,22.238,1.107
60626,241.878,22.538,1.121
60660,241.922,22.682,1.097
60693,241.695,22.328,1.083
60726,241.181,21.268,1.158
60759,240.513,19.703,1.287
60792,240.197,18.793,1.348
60826,240.243,18.738,1.363
60859,240.394,18.958,1.365
60892,240.486,19.157,1.356
60925,240.652,19.49,1.348
60959,240.812,19.82,1.338
60992,240.844,19.954,1.291
61025,240.868,20.036,1.28
61058,240.999,20.227,1.292
61091,241.171,20.517,1.27
61125,241.347,20.849,1.268
61191,241.602,21.471,1.237
61223,241.735,21.748,1.19
61258,241.693,21.849,1.166
61324,241.956,22.356,1.151
61357,241.941,22.443,1.115
61390,241.925,22.574,1.113
61424,242.082,22.85,1.12
61457,242.12,22.993,1.076
61490,242.065,22.958,1.066
61523,241.621,22.1,1.121
61557,240.799,20.438,1.215
61590,240.134,18.875,1.344
61623,240.028,18.401,1.388
61656,240.11,18.458,1.384
61689,240.254,18.662,1.395
61723,240.407,18.875,1.367
61756,240.557,19.216,1.334
61789,240.709,19.579,1.325
61821,240.779,19.755,1.298
61855,240.834,19.868,1.294
61889,240.902,19.998,1.302
61922,241.008,20.214,1.266
61955,241.2,20.597,1.258
62022,241.465,21.226,1.213
62055,241.543,21.457,1.192
62088,241.581,21.625,1.155
62121,241.685,21.871,1.153
62154,241.695,22.013,1.156
62188,241.76,22.184,1.128
62221,241.772,22.31,1.123
62254,241.788,22.377,1.064
62287,241.908,22.636,1.078
62321,241.977,22.802,1.068
62354,241.904,22.755,1.081
62387,241.376,21.731,1.119
62419,240.459,19.776,1.245
62453,239.783,18.148,1.389
62487,239.73,17.787,1.439
62520,239.899,17.943,1.43
62553,239.991,18.082,1.406
62586,240.107,18.316,1.402
62620,240.35,18.75,1.387
62653,240.421,19.006,1.339
62686,240.47,19.117,1.339
62719,240.444,19.058,1.319
62752,240.446,19.156,1.324
62786,240.652,19.471,1.297
62819,240.831,19.835,1.266
62852,240.997,20.202,1.263
62885,241.155,20.51,1.23
62919,241.203,20.733,1.216
62952,241.229,20.855,1.204
62985,241.265,21.018,1.188
63017,241.35,21.179,1.173
63051,241.365,21.282,1.148
63085,241.409,21.458,1.149
63118,241.498,21.665,1.128
63151,241.512,21.725,1.136
63184,241.028,20.899,1.15
63218,240.154,19.131,1.281
63251,239.401,17.447,1.446
63284,239.298,16.97,1.478
63317,239.49,17.054,1.512
63350,239.636,17.247,1.517
63384,239.778,17.481,1.487
63417,239.963,17.819,1.453
63450,240.113,18.166,1.429
63483,240.1,18.246,1.391
63516,240.094,18.234,1.39
63550,240.162,18.396,1.392
63583,240.289,18.617,1.35
63616,240.441,18.966,1.324
63649,240.619,19.349,1.323
63683,240.452,19.412,1.228
63716,240.699,19.801,1.221
63749,240.86,20.121,1.243
63782,240.932,20.303,1.203
63815,241.061,20.548,1.209
63848,241.213,20.789,1.21
63915,241.449,21.223,1.174
63948,241.49,21.411,1.165
63982,241.391,21.392,1.16
64015,240.907,20.531,1.184
64048,239.929,18.565,1.309
64081,239.063,16.711,1.473
64114,238.98,16.243,1.548
64148,239.082,16.244,1.582
64181,239.23,16.357,1.577
64214,239.329,16.487,1.572
64247,239.537,16.818,1.591
64281,239.7,17.109,1.511
64314,239.784,17.344,1.497
64347,239.877,17.443,1.51
64380,239.954,17.584,1.495
64413,240.051,17.845,1.472
64446,240.167,18.119,1.426
64480,240.404,18.5,1.393
64513,240.553,18.869,1.386
64546,240.71,19.197,1.337
64580,240.841,19.501,1.323
64613,240.922,19.735,1.304
64646,240.988,19.921,1.28
64679,241.094,20.126,1.267
64712,241.176,20.361,1.273
64746,241.224,20.507,1.24
64779,241.299,20.724,1.229
64812,241.384,20.955,1.213
64845,241.353,21.03,1.175
64879,240.982,20.398,1.201
64912,240.211,18.873,1.31
64945,239.253,16.97,1.46
64978,239.111,16.412,1.563
65011,239.301,16.492,1.557
65044,239.425,16.666,1.574
65078,239.68,16.956,1.557
65111,239.838,17.315,1.556
65144,240.094,17.696,1.512
65177,240.023,17.761,1.484
65211,239.993,17.737,1.456
65244,240.009,17.801,1.468
65277,240.197,18.075,1.46
65310,240.284,18.336,1.414
65344,240.466,18.698,1.385
65377,240.611,19.009,1.371
65410,240.736,19.287,1.341
65443,240.963,19.608,1.333
65476,240.962,19.721,1.32
65510,240.949,19.855,1.288
65543,241.036,20.027,1.275
65576,241.144,20.236,1.263
65609,241.183,20.409,1.248
65642,241.327,20.704,1.244
65676,241.374,20.856,1.22
65709,240.977,20.311,1.219
65742,240.247,18.978,1.279
65775,239.421,17.274,1.433
65809,239.184,16.623,1.528
65842,239.367,16.755,1.55
65875,239.569,17.06,1.527
65908,239.808,17.431,1.484
65942,240.092,17.905,1.472
65975,240.194,18.201,1.414
66008,240.242,18.347,1.418
66041,240.187,18.311,1.399
66074,240.27,18.423,1.4
66108,240.352,18.605,1.379
66141,240.511,18.942,1.345
66174,240.72,19.317,1.337
66207,240.749,19.536,1.3
66241,240.993,19.894,1.306
66274,240.951,19.976,1.271
66307,241.055,20.195,1.251
66340,241.145,20.387,1.235
66373,241.238,20.581,1.236
66407,241.276,20.722,1.197
66440,241.355,20.896,1.198
66473,241.479,21.128,1.184
66506,241.436,21.176,1.196
66540,240.878,20.293,1.214
66573,239.833,18.417,1.312
66606,239.059,16.762,1.464
66639,239.058,16.417,1.555
66672,239.253,16.529,1.555
66706,239.368,16.7,1.54
66739,239.512,16.912,1.522
66772,239.73,17.271,1.488
66805,239.899,17.622,1.481
66838,239.954,17.795,1.44
66872,240.015,17.921,1.444
66905,240.057,18.025,1.414
66938,240.174,18.24,1.383
66971,240.326,18.605,1.373
67005,240.514,18.956,1.346
67038,240.667,19.245,1.29
67104,240.901,19.804,1.27
67137,241.097,20.127,1.263
67171,241.089,20.24,1.26
67204,241.159,20.392,1.231
67237,241.196,20.556,1.221
67270,241.334,20.807,1.212
67304,241.437,21.006,1.18
67337,241.449,21.138,1.179
67370,241.107,20.611,1.185
67403,240.381,19.223,1.249
67436,239.507,17.516,1.376
67470,239.257,16.888,1.461
67503,239.548,17.083,1.49
67536,239.627,17.283,1.477
67569,239.9,17.628,1.46
67603,240.031,17.912,1.445
67636,240.148,18.179,1.418
67669,240.198,18.293,1.4
67702,240.191,18.297,1.409
67735,240.206,18.301,1.392
67769,240.288,18.482,1.389
67802,240.381,18.728,1.343
67835,240.524,19.05,1.331
67868,240.643,19.321,1.278
67902,240.767,19.579,1.278
67935,240.791,19.729,1.25
67968,240.842,19.858,1.225
68001,240.889,20.01,1.222
68034,240.887,20.093,1.202
68068,241.037,20.354,1.206
68101,241.167,20.613,1.189
68134,241.162,20.719,1.162
68167,240.877,20.256,1.181
68201,240.145,18.913,1.273
68234,239.341,17.274,1.411
68267,239.112,16.652,1.475
68300,239.373,16.881,1.495
68333,239.546,17.154,1.455
68367,239.789,17.57,1.429
68400,240.015,17.983,1.389
68433,240.174,18.304,1.368
68466,240.176,18.346,1.369
68533,240.257,18.472,1.382
68566,240.364,18.684,1.339
68598,240.486,18.96,1.32
68632,240.598,19.256,1.289
68666,240.731,19.569,1.268
68699,240.798,19.81,1.264
68732,240.947,20.073,1.244
68765,240.908,20.168,1.235
68798,240.969,20.301,1.179
68832,241.083,20.51,1.182
68865,241.139,20.676,1.171
68898,241.036,20.649,1.135
68931,240.619,19.912,1.174
68965,239.69,18.181,1.293
68998,238.948,16.621,1.451
69031,238.894,16.241,1.509
69064,239.04,16.314,1.508
69097,239.213,16.546,1.508
69131,239.389,16.787,1.469
69164,239.634,17.206,1.481
69196,239.747,17.466,1.429
69230,239.777,17.583,1.422
69264,239.664,17.5,1.41
69297,239.747,17.615,1.399
69330,239.865,17.853,1.373
69363,240.167,18.287,1.373
69430,240.513,19.004,1.333
69496,240.737,19.514,1.287
69529,240.744,19.652,1.244
69596,240.807,19.98,1.198
69629,240.954,20.283,1.206
69662,240.987,20.463,1.168
69695,240.991,20.634,1.113
69729,240.763,20.362,1.13
69762,239.901,18.862,1.201
69794,238.71,16.629,1.369
69828,238.333,15.655,1.497
69862,238.307,15.423,1.538
69895,238.409,15.461,1.565
69928,238.439,15.468,1.548
69961,238.672,15.658,1.56
69994,238.974,16.074,1.55
70028,239.141,16.367,1.53
70061,239.212,16.498,1.498
70094,239.191,16.534,1.504
70127,239.34,16.712,1.498
70160,239.512,16.977,1.487
70194,239.638,17.21,1.447
70227,239.798,17.552,1.42
70260,239.961,17.855,1.388
70293,240.059,18.083,1.358
70327,240.09,18.226,1.36
70360,240.128,18.32,1.353
70392,240.172,18.372,1.318
70426,240.307,18.599,1.32
70459,240.354,18.751,1.323
70526,240.551,19.161,1.304
70559,240.585,19.28,1.245
70592,240.648,19.494,1.239
70626,240.423,19.201,1.236
70659,239.481,17.767,1.323
70692,238.281,15.608,1.504
70725,237.865,14.663,1.623
70758,237.898,14.49,1.647
70792,238.039,14.601,1.655
70825,238.121,14.699,1.645
70858,238.392,14.961,1.637
70925,238.837,15.591,1.636
70958,238.808,15.624,1.61
70991,238.856,15.653,1.611
71024,238.785,15.662,1.578
71057,238.912,15.903,1.538
71091,238.987,16.175,1.483
71124,239.3,16.621,1.484
71157,239.544,16.974,1.462
71190,239.686,17.266,1.45
71223,239.763,17.453,1.42
71257,239.843,17.643,1.41
71290,239.93,17.854,1.388
71323,240.059,18.06,1.352
71356,240.067,18.19,1.34
71390,240.212,18.41,1.33
71423,240.324,18.64,1.305
71456,240.373,18.827,1.299
71489,240.169,18.577,1.323
71523,239.238,17.19,1.362
71556,238.075,15.256,1.511
71589,237.725,14.476,1.644
71622,237.697,14.315,1.634
71655,237.904,14.489,1.656
71689,238.146,14.747,1.655
71722,238.314,14.994,1.616
71755,238.554,15.384,1.598
71788,238.756,15.679,1.585
71821,238.822,15.77,1.573
71855,238.742,15.747,1.557
71888,238.893,15.925,1.536
71921,239.006,16.216,1.497
71954,239.348,16.67,1.483
71988,239.425,16.965,1.446
72021,239.63,17.302,1.408
72054,239.861,17.638,1.402
72087,239.906,17.806,1.366
72120,240.08,18.047,1.358
72154,240.08,18.208,1.338
72187,240.155,18.372,1.327
72220,240.232,18.554,1.293
72253,240.336,18.739,1.289
72287,240.35,18.855,1.254
72320,240.465,19.121,1.257
72353,240.534,19.244,1.233
72386,239.949,18.459,1.28
72419,238.911,16.768,1.391
72453,238.006,15.187,1.52
72486,237.91,14.791,1.561
72519,238.145,14.942,1.597
72552,238.375,15.213,1.582
72586,238.777,15.651,1.588
72652,239.291,16.532,1.526
72718,239.466,16.904,1.485
72752,239.471,17.001,1.46
72785,239.616,17.273,1.437
72818,239.759,17.58,1.403
72851,240.03,17.994,1.392
72885,240.195,18.311,1.362
72918,240.292,18.526,1.325
72951,240.341,18.711,1.313
72984,240.511,18.973,1.282
73017,240.623,19.218,1.27
73051,240.769,19.452,1.26
73084,240.825,19.637,1.246
73150,241.038,20.081,1.217
73184,241.157,20.313,1.193
73217,241.229,20.516,1.201
73250,241.332,20.734,1.18
73283,240.842,20.021,1.18
73350,239.312,17.379,1.339
73383,239.177,16.959,1.4
73416,239.349,17.16,1.38
73449,239.623,17.539,1.387
73482,239.762,17.783,1.337
73516,239.945,18.127,1.329
73549,240.097,18.439,1.318
73582,240.113,18.538,1.291
73615,240.14,18.578,1.284
73649,240.163,18.658,1.28
73682,240.311,18.882,1.272
73715,240.369,19.123,1.247
73748,240.465,19.396,1.218
73781,240.591,19.636,1.18
73815,240.756,19.909,1.179
73848,240.814,20.11,1.169
73881,240.915,20.275,1.156
73914,240.876,20.348,1.142
73948,241.023,20.555,1.144
73981,241.047,20.662,1.124
74014,241.12,20.787,1.129
74047,241.167,20.919,1.101
74080,241.238,21.11,1.086
74114,241.273,21.229,1.084
74147,240.907,20.669,1.086
74180,240.126,19.388,1.143
74213,239.472,18.154,1.218
74247,239.362,17.736,1.268
74280,239.659,18.061,1.252
74313,239.93,18.501,1.256
74346,240.167,18.935,1.228
74379,240.398,19.341,1.199
74413,240.372,19.486,1.183
74446,240.315,19.451,1.178
74479,240.27,19.358,1.155
74512,240.276,19.416,1.163
74546,240.453,19.696,1.165
74579,240.595,19.986,1.154
74612,240.712,20.234,1.122
74645,240.787,20.464,1.091
74678,240.97,20.761,1.068
74712,241.08,20.998,1.077
74745,241.157,21.15,1.078
74778,241.277,21.317,1.085
74811,241.342,21.485,1.084
74845,241.365,21.543,1.058
74878,241.431,21.684,1.033
74911,241.412,21.816,1.045
74944,241.344,21.777,1.018
74977,240.82,20.997,1.032
75011,240.096,19.555,1.125
75044,239.272,17.908,1.248
75077,239.101,17.308,1.319
75110,239.125,17.272,1.306
75142,239.376,17.595,1.346
75177,239.422,17.697,1.297
75210,239.739,18.136,1.311
75243,239.886,18.415,1.286
75276,239.831,18.442,1.226
75310,239.889,18.547,1.26
75343,239.9,18.614,1.258
75376,239.967,18.744,1.225
75409,240.107,19.054,1.235
75442,240.27,19.367,1.182
75476,240.375,19.624,1.148
75509,240.445,19.84,1.125
75542,240.589,20.103,1.141
75575,240.712,20.295,1.119
75609,240.755,20.427,1.116
75642,240.834,20.586,1.099
75675,240.837,20.647,1.086
75708,240.936,20.836,1.081
75741,241.023,21.044,1.078
75775,240.954,20.982,1.058
75808,240.412,20.072,1.097
75841,239.423,18.326,1.212
75874,238.579,16.718,1.335
75908,238.496,16.317,1.386
75941,238.644,16.41,1.373
75973,238.729,16.556,1.364
76007,238.945,16.827,1.362
76040,239.147,17.152,1.34
76074,239.411,17.484,1.339
76107,239.365,17.489,1.343
76140,239.264,17.353,1.344
76207,239.422,17.539,1.327
76240,239.682,17.919,1.305
76273,239.762,18.216,1.274
76306,240.003,18.606,1.247
76339,240.051,18.816,1.228
76373,240.115,19.012,1.223
76406,240.181,19.152,1.176
76439,240.178,19.269,1.176
76472,240.233,19.415,1.169
76506,240.32,19.586,1.167
76539,240.403,19.758,1.127
76571,240.501,19.969,1.117
76605,240.378,19.843,1.102
76638,239.732,18.767,1.172
76672,238.557,16.762,1.318
76705,237.897,15.517,1.403
76738,237.896,15.315,1.467
76771,238.055,15.417,1.444
76804,238.324,15.723,1.461
76838,238.509,16.04,1.418
76871,238.772,16.43,1.397
76904,238.82,16.589,1.367
76937,238.754,16.514,1.371
76971,238.735,16.472,1.382
77004,238.897,16.659,1.387
77037,239.043,16.906,1.355
77070,239.351,17.339,1.337
77103,239.588,17.737,1.307
77137,239.756,18.068,1.306
77169,239.862,18.279,1.279
77203,239.959,18.47,1.262
77236,239.938,18.539,1.237
77270,239.962,18.685,1.223
77303,240.121,18.911,1.203
77336,240.068,18.884,1.192
77369,239.479,18.067,1.235
77402,238.395,16.308,1.367
77436,237.669,14.969,1.477
77469,237.758,14.77,1.539
77502,237.952,14.892,1.525
77535,238.17,15.172,1.547
77569,238.237,15.325,1.514
77602,238.502,15.699,1.48
77635,238.63,15.912,1.473
77668,238.535,15.868,1.455
77701,238.508,15.806,1.456
77735,238.6,15.908,1.434
77767,238.763,16.196,1.422
77801,238.933,16.468,1.403
77834,239.181,16.837,1.38
77868,239.369,17.162,1.375
77901,239.498,17.387,1.342
77934,239.537,17.565,1.337
77967,239.645,17.743,1.31
78000,239.739,17.924,1.314
78034,239.82,18.099,1.281
78067,239.896,18.294,1.278
78100,239.663,18.034,1.279
78133,238.702,16.672,1.342
78167,237.483,14.681,1.514
78200,236.935,13.645,1.612
78233,236.917,13.405,1.667
78299,237.031,13.332,1.739
78333,237.168,13.371,1.742
78366,237.386,13.631,1.722
78399,237.547,13.851,1.667
78465,237.619,14.021,1.674
78499,237.761,14.187,1.662
78532,237.848,14.379,1.649
78565,238.136,14.738,1.607
78598,238.298,15.05,1.566
78632,238.528,15.403,1.565
78665,238.622,15.663,1.506
78698,238.8,15.958,1.465
78731,238.92,16.21,1.465
78764,239.128,16.482,1.454
78798,239.256,16.705,1.435
78831,239.306,16.848,1.415
78864,239.521,17.138,1.387
78897,239.534,17.308,1.381
78931,239.566,17.371,1.363
78964,239.002,16.636,1.384
78997,237.544,14.673,1.504
79030,236.639,13.231,1.621
79063,236.591,12.878,1.736
79097,236.644,12.819,1.739
79130,236.759,12.868,1.766
79163,236.858,12.927,1.745
79196,237.117,13.18,1.745
79230,237.353,13.499,1.733
79263,237.559,13.73,1.711
79296,237.587,13.838,1.703
79329,237.598,13.889,1.686
79362,237.753,14.118,1.654
79396,238.006,14.414,1.625
79429,238.242,14.765,1.609
79462,238.402,15.061,1.586
79495,238.621,15.347,1.556
79529,238.764,15.613,1.533
79562,238.88,15.849,1.519
79595,238.965,16.044,1.512
79628,239.046,16.203,1.486
79661,239.185,16.427,1.471
79695,239.284,16.597,1.452
79728,239.401,16.797,1.424
79761,239.502,16.974,1.41
79794,239.602,17.206,1.399
79828,239.702,17.393,1.37
79861,239.537,17.292,1.373
79894,238.905,16.398,1.428
79927,237.629,14.602,1.546
79960,237.044,13.583,1.661
79994,237.059,13.423,1.677
80027,237.373,13.656,1.702
80060,237.487,13.812,1.661
80093,237.708,14.083,1.661
80126,237.968,14.405,1.643
80160,238.079,14.621,1.61
80193,238.07,14.679,1.62
80226,238.029,14.633,1.592
80259,238.073,14.708,1.582
80293,238.245,14.956,1.574
80326,238.48,15.286,1.555
80359,238.651,15.578,1.511
80392,238.817,15.895,1.494
80425,238.962,16.132,1.46
80459,239.036,16.341,1.445
80492,239.208,16.552,1.427
80525,239.259,16.722,1.435
80558,239.341,16.864,1.398
80592,239.417,17.022,1.381
80625,239.572,17.245,1.385
80658,239.64,17.427,1.354
80691,239.686,17.575,1.34
80723,239.275,17.136,1.346
