time,R,G,B
0,168.441,57.09,22.687
33,168.779,57.452,22.636
67,168.91,57.6,22.507
100,168.689,57.48,22.236
133,168.639,57.507,22.147
167,168.639,57.593,22.111
200,168.574,57.593,22.031
233,168.468,57.564,21.941
267,168.435,57.598,21.867
300,168.449,57.707,21.844
333,168.492,57.822,21.809
367,168.111,57.428,21.644
400,165.919,55.073,21.576
433,163.875,53.179,22.001
467,163.098,52.51,21.987
500,162.97,52.416,21.919
533,162.829,52.295,21.868
566,162.713,52.109,21.818
600,162.212,51.664,21.647
633,162.04,51.573,21.524
666,162.185,51.7,21.462
700,162.119,51.642,21.405
733,162.334,51.779,21.416
766,162.194,51.616,21.305
800,162.003,51.448,21.105
833,161.935,51.407,20.979
866,161.987,51.5,20.935
900,162.23,51.77,21.001
933,162.47,52.003,21.018
966,162.708,52.283,21.058
1000,163.232,52.795,21.228
1033,163.648,53.186,21.259
1066,163.766,53.304,21.141
1100,163.656,53.245,20.93
1133,163.798,53.435,20.913
1166,163.927,53.595,20.893
1199,163.865,53.599,20.737
1233,163.649,53.505,20.543
1266,163.646,53.596,20.498
1299,162.233,52.086,20.065
1333,160.435,50.291,20.494
1366,159.868,49.747,20.825
1399,159.849,49.694,20.885
1433,159.97,49.774,20.892
1466,159.778,49.577,20.779
1499,159.758,49.49,20.769
1533,159.713,49.441,20.695
1566,159.762,49.486,20.656
1599,159.716,49.422,20.62
1633,159.416,49.141,20.462
1666,159.369,49.109,20.502
1699,159.511,49.243,20.58
1733,159.822,49.547,20.733
1766,160.244,49.941,20.869
1799,160.68,50.319,20.995
1833,161.247,50.833,21.23
1866,161.82,51.315,21.417
1899,161.497,50.989,21.12
1932,160.099,49.813,20.451
1966,160.108,50.02,20.749
1999,162.03,51.589,21.803
2032,162.339,51.774,21.822
2066,162.638,51.969,21.868
2099,162.625,51.885,21.897
2132,161.588,50.744,21.68
2166,160.754,49.717,21.686
2199,160.469,49.216,21.838
2232,159.652,48.443,21.702
2266,158.655,47.493,21.471
2299,156.708,45.864,21.062
2332,154.988,44.559,20.775
2366,154.052,43.759,20.537
2399,152.329,42.472,20.043
2432,151.886,42.047,20.087
2466,151.697,41.778,20.123
2499,152.263,42.09,20.431
2532,152.972,42.408,20.665
2565,153.434,42.694,20.896
2599,154.054,43.0,21.075
2632,154.365,43.188,21.245
2665,154.483,43.173,21.312
2699,155.307,43.719,21.634
2732,156.414,44.497,22.074
2765,157.734,45.395,22.551
2799,157.706,45.187,22.433
2832,155.587,43.551,21.61
2865,154.663,43.002,21.429
2899,154.961,43.174,21.562
2932,154.743,42.958,21.484
2965,154.163,42.359,21.367
2999,153.459,41.497,21.332
3032,152.464,40.409,21.207
3065,151.437,39.502,21.043
3099,150.975,39.001,21.014
3132,150.576,38.585,20.991
3165,151.014,38.714,21.31
3198,151.741,39.076,21.722
3232,151.446,38.638,21.505
3265,150.65,37.939,21.148
3298,150.607,37.83,21.278
3332,150.436,37.59,21.291
3365,150.288,37.375,21.285
3398,150.053,37.118,21.235
3432,149.725,36.826,21.143
3465,149.075,36.312,20.853
3498,148.88,36.196,20.921
3532,148.411,35.847,20.725
3565,148.436,35.907,20.892
3598,148.791,36.177,21.157
3632,149.21,36.469,21.4
3665,149.631,36.731,21.558
3698,149.301,36.402,21.27
3732,149.156,36.303,21.211
3765,149.028,36.211,21.148
3798,148.805,36.038,21.076
3831,148.113,35.364,20.83
3865,147.385,34.619,20.711
3898,147.024,34.21,20.826
3931,146.766,33.888,20.892
3965,146.265,33.425,20.791
3998,145.941,33.146,20.8
4031,146.202,33.274,21.102
4065,146.031,33.054,21.071
4098,145.256,32.429,20.677
4131,144.478,31.882,20.43
4165,144.093,31.663,20.438
4198,144.116,31.675,20.62
4231,143.954,31.537,20.591
4265,144.053,31.608,20.716
4298,143.951,31.522,20.686
4331,143.73,31.366,20.57
4365,143.694,31.367,20.592
4398,143.676,31.374,20.614
4431,143.671,31.368,20.624
4464,143.798,31.463,20.677
4498,143.729,31.421,20.635
4531,143.799,31.494,20.672
4564,144.025,31.671,20.774
4598,143.929,31.585,20.684
4631,143.526,31.243,20.5
4664,142.754,30.543,20.194
4698,142.02,29.93,20.032
4731,142.012,29.916,20.311
4764,141.86,29.759,20.324
4798,141.603,29.556,20.266
4831,141.307,29.322,20.227
4864,141.268,29.291,20.321
4898,141.124,29.184,20.278
4931,140.863,29.002,20.197
4964,140.71,28.893,20.184
4998,140.295,28.582,19.997
5031,140.04,28.46,19.976
5064,140.397,28.78,20.273
5097,140.37,28.732,20.21
5131,139.913,28.403,19.917
5164,139.656,28.291,19.833
5197,139.622,28.338,19.876
5231,139.642,28.385,19.921
5264,139.751,28.472,19.978
5297,139.573,28.371,19.861
5331,139.82,28.598,20.018
5364,140.02,28.734,20.109
5397,139.461,28.236,19.797
5431,138.783,27.654,19.542
5464,138.447,27.381,19.581
5497,138.374,27.304,19.706
5531,138.374,27.3,19.804
5564,138.187,27.133,19.781
5597,138.258,27.17,19.88
5631,138.347,27.219,19.973
5664,138.274,27.154,19.941
5697,138.139,27.042,19.891
5730,138.068,26.985,19.863
5764,137.807,26.81,19.774
5797,137.948,26.954,19.901
5830,138.061,27.038,19.947
5864,138.186,27.145,20.007
5897,138.388,27.296,20.089
5930,138.341,27.251,20.0
5964,138.312,27.252,19.958
5997,138.525,27.431,20.064
6030,138.726,27.558,20.127
6064,138.762,27.57,20.056
6097,139.172,27.886,20.307
6130,139.231,27.902,20.234
6164,139.325,27.992,20.225
6197,139.484,28.118,20.274
6230,139.097,27.772,20.029
6264,138.59,27.335,19.834
6297,138.252,27.044,19.848
6330,138.236,27.022,19.967
6364,138.219,26.99,20.044
6397,138.096,26.883,20.044
6430,137.918,26.734,20.0
6463,137.84,26.677,20.008
6497,137.884,26.724,20.059
6530,137.98,26.79,20.136
6563,137.938,26.742,20.124
6597,137.875,26.693,20.102
6630,138.089,26.864,20.251
6663,138.097,26.841,20.215
6697,138.119,26.873,20.231
6730,138.256,26.984,20.279
6763,138.288,27.019,20.256
6797,138.303,27.034,20.233
6830,138.411,27.137,20.274
6863,138.532,27.227,20.298
6897,138.65,27.324,20.324
6930,138.77,27.414,20.343
6963,138.794,27.431,20.307
6997,138.855,27.508,20.299
7030,138.956,27.598,20.28
7063,138.977,27.645,20.277
7096,139.038,27.713,20.25
7130,139.156,27.825,20.294
7163,139.411,28.039,20.374
7196,139.509,28.125,20.354
7230,139.513,28.13,20.286
7263,139.106,27.761,20.109
7296,138.645,27.356,19.95
7330,138.452,27.209,19.999
7363,138.566,27.288,20.168
7396,138.589,27.289,20.245
7430,138.532,27.219,20.235
7463,138.421,27.107,20.178
7496,138.398,27.087,20.227
7530,138.383,27.092,20.241
7563,138.257,27.005,20.201
7596,138.095,26.897,20.15
7630,138.164,26.97,20.208
7663,138.135,26.945,20.193
7696,138.019,26.868,20.134
7729,137.929,26.848,20.069
7763,137.925,26.895,20.112
7796,137.869,26.878,20.083
7829,137.797,26.855,20.024
7863,137.904,26.967,20.087
7896,138.092,27.113,20.19
7929,138.222,27.217,20.204
7963,138.402,27.351,20.264
7996,138.477,27.395,20.253
8029,138.341,27.291,20.079
8063,138.246,27.28,20.038
8096,138.449,27.465,20.158
8129,138.453,27.471,20.098
8163,138.256,27.377,19.957
8196,138.48,27.587,20.075
8229,138.48,27.613,20.014
8263,138.226,27.423,19.872
8296,137.703,26.992,19.681
8329,137.531,26.826,19.749
8362,137.424,26.72,19.815
8396,137.496,26.78,19.921
8429,137.796,26.97,20.11
8462,137.697,26.85,20.041
8496,137.341,26.572,19.844
8529,137.209,26.509,19.811
8562,137.267,26.581,19.899
8596,137.295,26.602,19.947
8629,137.018,26.377,19.796
8661,136.796,26.244,19.686
8696,136.902,26.377,19.817
8729,137.007,26.462,19.853
8762,136.955,26.447,19.829
8796,137.056,26.561,19.871
8829,137.502,26.893,20.107
8862,137.611,26.909,20.078
8896,137.34,26.708,19.867
8929,137.252,26.697,19.84
8962,137.29,26.751,19.847
8995,137.308,26.783,19.849
9029,137.266,26.779,19.798
9062,137.273,26.826,19.788
9095,137.414,26.957,19.838
9129,137.245,26.855,19.702
9161,136.775,26.5,19.475
9195,136.199,26.036,19.256
9229,135.74,25.684,19.195
9262,135.438,25.503,19.196
9295,135.355,25.488,19.287
9329,135.364,25.506,19.368
9362,135.102,25.31,19.27
9394,134.931,25.224,19.247
9429,134.894,25.219,19.258
9462,134.772,25.153,19.219
9495,134.498,24.972,19.113
9529,134.362,24.898,19.098
9562,134.474,25.004,19.233
9595,134.463,25.014,19.242
9627,134.508,25.047,19.247
9661,134.539,25.092,19.236
9695,134.647,25.179,19.275
9728,134.682,25.203,19.266
9762,134.649,25.185,19.19
9795,134.639,25.209,19.206
9828,134.773,25.329,19.277
9862,134.757,25.311,19.22
9894,134.718,25.314,19.175
9928,134.698,25.323,19.133
9962,134.687,25.346,19.118
9995,134.533,25.266,18.996
10028,134.254,25.083,18.891
10062,133.695,24.622,18.69
10095,133.267,24.292,18.645
10127,133.213,24.244,18.785
10161,133.046,24.121,18.778
10195,132.968,24.07,18.82
10228,132.806,23.948,18.812
10261,132.614,23.828,18.784
10295,132.477,23.752,18.763
10328,132.397,23.703,18.735
10360,132.513,23.788,18.85
10394,132.45,23.726,18.809
10428,132.276,23.606,18.745
10461,132.368,23.705,18.819
10495,132.615,23.887,18.954
10528,132.66,23.899,18.932
10561,132.69,23.934,18.929
10595,132.703,23.942,18.892
10627,132.932,24.109,19.024
10661,132.902,24.065,18.928
10695,133.006,24.153,18.971
10728,133.085,24.206,18.975
10761,133.164,24.257,18.973
10795,133.165,24.279,18.936
10828,133.221,24.316,18.915
10860,133.341,24.441,18.968
10894,133.431,24.504,18.961
10928,133.217,24.309,18.816
10961,132.747,23.917,18.639
10994,132.601,23.769,18.709
11028,132.534,23.699,18.781
11061,132.486,23.646,18.829
11094,132.364,23.564,18.801
11127,132.347,23.535,18.844
11161,132.385,23.543,18.876
11194,132.112,23.358,18.754
11228,132.056,23.365,18.763
11261,131.844,23.234,18.678
11294,131.773,23.21,18.736
11328,131.66,23.144,18.714
11360,131.659,23.175,18.731
11394,131.888,23.362,18.87
11428,132.003,23.43,18.879
11461,131.838,23.297,18.739
11494,131.276,22.946,18.418
11528,131.201,22.994,18.472
11561,131.009,22.878,18.394
11594,130.522,22.612,18.167
11627,131.075,23.082,18.592
11661,131.872,23.606,18.995
11694,132.137,23.69,18.967
11727,132.108,23.615,18.846
11761,132.173,23.665,18.809
11794,132.18,23.68,18.758
11827,132.242,23.707,18.791
11860,131.798,23.29,18.57
11894,131.431,22.988,18.52
11927,131.228,22.827,18.522
11961,131.265,22.898,18.682
11994,131.734,23.198,18.968
12027,131.527,22.969,18.823
12061,131.182,22.741,18.674
12094,131.261,22.813,18.759
12127,131.336,22.863,18.793
12161,131.201,22.737,18.734
12194,130.764,22.457,18.542
12227,130.998,22.696,18.756
12260,131.3,22.893,18.891
12294,131.197,22.792,18.768
12327,130.96,22.647,18.624
12360,130.873,22.632,18.611
12394,131.138,22.86,18.792
12427,131.264,22.921,18.791
12460,130.971,22.727,18.586
12494,130.92,22.74,18.558
12527,131.207,22.972,18.736
12560,131.093,22.867,18.594
12594,130.597,22.557,18.331
12627,129.896,22.154,17.979
12660,129.854,22.271,18.106
12694,130.253,22.606,18.365
12727,130.382,22.635,18.424
12760,129.52,21.939,17.98
12794,129.222,21.746,17.987
12827,129.265,21.785,18.164
12860,129.428,21.873,18.296
12893,129.293,21.764,18.243
12927,129.189,21.676,18.228
12960,129.236,21.702,18.311
12993,129.135,21.635,18.263
13027,129.178,21.677,18.295
13060,129.22,21.711,18.352
13093,129.282,21.745,18.367
13127,129.269,21.722,18.341
13160,128.993,21.555,18.179
13193,128.745,21.427,18.068
13227,128.431,21.273,17.932
13260,128.7,21.537,18.179
13293,128.821,21.6,18.197
13327,128.69,21.52,18.104
13360,128.753,21.588,18.118
13393,128.951,21.73,18.231
13427,128.9,21.699,18.149
13460,129.187,21.906,18.269
13493,129.642,22.207,18.473
13526,129.976,22.391,18.558
13560,129.835,22.245,18.354
13593,129.635,22.146,18.213
13626,129.964,22.403,18.395
13660,129.565,22.062,18.141
13693,128.832,21.509,17.833
13726,128.519,21.334,17.85
13760,128.622,21.434,18.066
13793,128.477,21.325,18.038
13826,128.263,21.198,17.983
13860,128.162,21.153,17.981
13893,128.351,21.293,18.14
13926,128.438,21.346,18.194
13960,128.362,21.281,18.148
13993,128.501,21.367,18.205
14026,128.468,21.33,18.182
14060,128.542,21.373,18.225
14093,128.355,21.265,18.096
14126,128.425,21.344,18.139
14159,128.633,21.518,18.256
14193,128.686,21.543,18.226
14226,128.745,21.57,18.217
14259,128.843,21.653,18.245
14293,128.904,21.691,18.222
14326,128.907,21.697,18.2
14359,129.081,21.837,18.275
14393,129.111,21.862,18.221
14426,129.062,21.843,18.141
14459,129.291,22.022,18.216
14493,129.366,22.074,18.216
14526,129.32,22.045,18.165
14559,128.946,21.722,17.998
14593,128.377,21.288,17.767
14626,128.273,21.266,17.884
14659,128.275,21.291,17.992
14693,128.286,21.305,18.055
14726,128.091,21.173,17.964
14759,128.022,21.142,17.989
14793,128.077,21.208,18.041
14826,128.178,21.27,18.089
14859,128.102,21.196,18.051
14892,128.025,21.146,18.006
14926,128.117,21.228,18.068
14959,128.102,21.221,18.043
14992,128.084,21.229,18.014
15026,128.105,21.266,18.01
15059,128.042,21.234,17.953
15092,127.921,21.186,17.898
15126,127.95,21.224,17.925
15159,127.638,21.035,17.741
15192,127.554,21.036,17.754
15226,127.655,21.16,17.834
15259,127.854,21.293,17.92
15292,128.055,21.436,17.992
15326,127.999,21.361,17.907
15359,127.6,21.015,17.721
15392,127.375,20.857,17.708
15426,127.352,20.836,17.761
15459,127.386,20.892,17.823
15492,127.496,20.966,17.919
15525,127.449,20.892,17.873
15559,127.391,20.873,17.84
15592,127.468,20.937,17.899
15625,127.535,20.986,17.919
15659,127.607,21.019,17.919
15692,127.467,20.918,17.847
15725,127.356,20.871,17.796
15759,127.417,20.942,17.859
15792,127.372,20.913,17.809
15825,127.399,20.964,17.814
15859,127.477,21.048,17.858
15892,127.612,21.136,17.881
15925,127.539,21.098,17.8
15959,127.541,21.122,17.794
15992,127.747,21.282,17.896
16025,127.973,21.416,17.972
16059,128.011,21.453,17.924
16092,128.186,21.566,17.976
16125,128.333,21.652,18.015
16158,127.942,21.334,17.785
16192,127.343,20.894,17.524
16225,127.053,20.724,17.535
16258,127.135,20.826,17.712
16292,127.027,20.752,17.687
16325,126.708,20.544,17.558
16358,126.591,20.482,17.575
16392,126.569,20.499,17.623
16425,126.613,20.546,17.676
16458,126.481,20.459,17.572
16492,126.554,20.526,17.676
16525,126.541,20.521,17.631
16558,126.577,20.559,17.666
16592,126.558,20.544,17.627
16625,126.64,20.625,17.661
16658,126.649,20.642,17.627
16692,126.747,20.726,17.655
16725,126.736,20.731,17.621
16758,126.718,20.726,17.573
16791,126.83,20.833,17.625
16825,126.99,20.952,17.693
16858,127.033,20.972,17.663
16891,127.021,20.983,17.608
16925,127.182,21.115,17.673
16958,127.205,21.135,17.625
16991,127.273,21.194,17.646
17025,127.367,21.252,17.674
17058,127.148,21.03,17.556
17091,126.844,20.753,17.474
17125,126.573,20.557,17.424
17158,126.543,20.561,17.51
17191,126.568,20.591,17.586
17225,126.429,20.491,17.539
17258,126.166,20.315,17.413
17291,126.099,20.304,17.444
17325,126.035,20.288,17.429
17358,125.952,20.269,17.417
17391,125.996,20.32,17.464
17424,126.079,20.377,17.496
17458,126.18,20.438,17.522
17491,126.107,20.401,17.46
17524,126.191,20.477,17.496
17558,126.31,20.571,17.52
17591,126.325,20.582,17.514
17624,126.259,20.553,17.435
17658,126.188,20.531,17.373
17691,126.119,20.512,17.318
17724,125.986,20.46,17.253
17758,125.759,20.336,17.137
17791,125.053,19.913,16.79
17824,124.403,19.585,16.571
17858,123.688,19.241,16.368
17891,122.805,18.745,16.083
17924,122.181,18.443,16.063
17958,122.065,18.436,16.229
17991,121.925,18.394,16.298
18024,121.994,18.475,16.431
18057,121.94,18.452,16.423
18091,121.752,18.324,16.358
18124,121.787,18.368,16.423
18157,121.79,18.378,16.436
18191,121.678,18.296,16.38
18224,121.632,18.281,16.391
18257,121.748,18.374,16.486
18291,121.76,18.362,16.487
18324,121.798,18.404,16.485
18357,121.917,18.476,16.511
18391,122.026,18.543,16.568
18424,122.129,18.599,16.581
18457,122.159,18.61,16.543
18491,122.382,18.756,16.643
18524,122.483,18.808,16.662
18557,122.657,18.904,16.692
18591,122.892,19.051,16.777
18624,123.084,19.157,16.803
18657,123.177,19.178,16.81
18691,122.893,18.916,16.635
18724,122.587,18.679,16.553
18757,122.485,18.614,16.577
18790,122.621,18.714,16.732
18824,122.624,18.702,16.729
18857,122.592,18.669,16.739
18890,122.566,18.651,16.737
18924,122.582,18.664,16.739
18957,122.65,18.715,16.779
18990,122.87,18.845,16.904
19024,122.894,18.809,16.862
19057,122.805,18.747,16.803
19090,122.902,18.815,16.86
19124,123.033,18.894,16.916
19157,123.043,18.889,16.877
19190,122.971,18.848,16.825
19224,123.157,18.982,16.944
19257,123.125,18.947,16.844
19290,123.055,18.921,16.83
19324,123.193,19.026,16.881
19357,123.223,19.053,16.884
19390,123.193,19.027,16.802
19423,123.406,19.215,16.931
19457,123.586,19.306,16.96
19490,123.386,19.158,16.794
19523,123.166,19.021,16.7
19557,122.745,18.694,16.55
19590,122.684,18.641,16.652
19623,122.588,18.572,16.683
19657,122.277,18.372,16.564
19690,122.263,18.403,16.647
19723,122.412,18.488,16.782
19757,122.306,18.387,16.735
19790,122.26,18.366,16.723
19823,122.157,18.297,16.699
19857,122.321,18.408,16.813
19890,122.284,18.361,16.782
19923,122.281,18.348,16.791
19957,122.129,18.257,16.69
19990,122.171,18.305,16.733
20023,122.289,18.404,16.811
20056,122.332,18.424,16.798
20090,122.255,18.373,16.738
20123,122.289,18.413,16.766
20156,122.403,18.506,16.815
20190,122.534,18.571,16.835
20223,122.421,18.505,16.75
20256,122.496,18.567,16.768
20290,122.497,18.582,16.761
20323,122.558,18.634,16.77
20356,122.441,18.573,16.682
20390,122.507,18.652,16.719
20423,122.666,18.757,16.782
20456,122.286,18.422,16.578
20490,121.636,17.93,16.298
20523,121.378,17.808,16.349
20556,121.574,17.979,16.581
20590,121.615,18.0,16.663
20623,121.411,17.837,16.529
20656,121.29,17.764,16.509
20689,121.342,17.829,16.62
20723,121.461,17.898,16.679
20756,121.392,17.83,16.626
20789,121.23,17.723,16.56
20823,121.155,17.69,16.534
20856,121.377,17.86,16.691
20889,121.296,17.806,16.622
20923,121.369,17.879,16.649
20956,121.484,17.972,16.679
20989,121.684,18.084,16.761
21023,121.627,18.031,16.652
21056,121.615,18.047,16.641
21089,121.707,18.125,16.68
21123,121.995,18.329,16.804
21156,121.929,18.256,16.702
21189,121.686,18.127,16.533
21223,122.029,18.41,16.74
21256,122.207,18.507,16.758
21289,122.098,18.402,16.612
21322,121.517,17.978,16.317
21356,121.216,17.781,16.291
21389,121.141,17.746,16.399
21422,120.996,17.668,16.425
21456,120.974,17.687,16.449
21489,120.981,17.712,16.499
21522,121.06,17.764,16.555
21556,121.241,17.879,16.669
21589,121.453,17.986,16.747
21622,121.27,17.818,16.578
21656,121.21,17.798,16.565
21689,121.518,17.995,16.736
21722,121.783,18.135,16.848
21756,121.752,18.068,16.738
21789,121.58,17.958,16.636
21822,121.611,18.004,16.656
21856,121.709,18.098,16.71
21889,121.491,17.956,16.544
21922,121.385,17.933,16.501
21955,121.433,18.012,16.556
21989,121.728,18.221,16.726
22022,121.502,18.055,16.52
22055,121.577,18.137,16.554
22089,121.569,18.158,16.549
22122,121.709,18.259,16.592
22155,121.281,17.887,16.369
22189,120.486,17.35,16.03
22222,120.296,17.294,16.135
22255,120.376,17.399,16.32
22289,120.315,17.365,16.328
22322,120.181,17.282,16.292
22355,120.064,17.228,16.27
22389,120.132,17.304,16.351
22422,120.111,17.295,16.331
22455,119.99,17.23,16.287
22489,120.078,17.296,16.355
22522,120.164,17.336,16.4
22555,120.099,17.294,16.326
22588,120.036,17.286,16.283
22622,120.301,17.486,16.431
22655,120.439,17.575,16.466
22688,120.591,17.669,16.505
22722,120.598,17.649,16.426
22755,120.704,17.737,16.462
22788,120.951,17.887,16.536
22822,120.806,17.765,16.383
22855,120.79,17.79,16.365
22888,121.157,18.045,16.553
22922,121.271,18.101,16.512
22955,121.306,18.126,16.481
22988,121.115,18.008,16.316
23022,120.998,17.928,16.299
23055,120.809,17.731,16.269
23088,120.32,17.36,16.081
23122,120.164,17.309,16.143
23155,120.078,17.283,16.182
23188,120.351,17.483,16.403
23222,120.137,17.298,16.283
23255,120.01,17.229,16.233
23288,120.206,17.386,16.399
23321,120.14,17.314,16.354
23355,119.873,17.139,16.189
23388,119.827,17.147,16.216
23421,120.136,17.381,16.405
23455,119.967,17.248,16.234
23488,119.852,17.221,16.167
23521,119.974,17.372,16.264
23555,120.521,17.741,16.537
23588,120.513,17.669,16.386
23621,120.651,17.779,16.429
23655,120.926,17.948,16.5
23688,121.095,18.032,16.523
23721,121.381,18.215,16.613
23755,122.163,18.676,16.971
23788,122.228,18.607,16.818
23821,122.034,18.445,16.593
23855,122.115,18.53,16.625
23888,122.327,18.635,16.732
23921,121.748,18.142,16.388
23954,121.241,17.797,16.234
23988,121.425,17.982,16.51
24021,121.786,18.217,16.75
24054,121.95,18.263,16.806
24088,121.555,17.965,16.543
24121,121.31,17.847,16.446
24154,121.525,18.054,16.647
24188,121.491,18.012,16.591
24221,121.313,17.891,16.505
24254,121.223,17.867,16.483
24288,121.372,17.996,16.571
24321,121.621,18.172,16.699
24354,121.946,18.392,16.839
24388,122.275,18.57,16.913
24421,122.075,18.401,16.688
24454,121.919,18.323,16.579
24488,122.08,18.468,16.682
24521,122.374,18.68,16.807
24554,122.364,18.651,16.709
24587,122.22,18.583,16.584
24621,122.639,18.922,16.823
24654,123.019,19.126,16.948
24687,122.359,18.557,16.515
24721,121.711,18.11,16.27
24754,121.738,18.186,16.479
24786,121.879,18.294,16.633
24821,121.694,18.16,16.529
24854,121.646,18.156,16.557
24887,121.843,18.288,16.695
24921,121.58,18.101,16.527
24954,121.845,18.314,16.711
24987,121.728,18.175,16.604
25021,121.404,17.979,16.417
25054,121.913,18.375,16.801
25087,122.321,18.585,16.953
25121,122.572,18.686,16.982
25154,122.641,18.677,16.961
25187,122.598,18.617,16.872
25220,122.632,18.644,16.846
25254,122.672,18.673,16.848
25286,122.594,18.646,16.779
25320,122.771,18.797,16.857
25354,122.834,18.829,16.86
25387,122.866,18.851,16.825
25420,122.947,18.927,16.837
25454,122.897,18.904,16.771
25487,122.652,18.686,16.667
25519,122.129,18.263,16.484
25554,121.729,18.007,16.414
25587,121.7,18.023,16.546
25620,121.615,17.984,16.574
25654,121.512,17.921,16.58
25687,121.446,17.867,16.618
25720,121.286,17.771,16.579
25754,121.269,17.781,16.598
25786,121.476,17.919,16.734
25820,121.307,17.784,16.631
25853,121.098,17.649,16.541
25887,121.201,17.745,16.651
25920,121.261,17.802,16.666
25953,121.305,17.83,16.668
25987,121.316,17.84,16.651
26019,121.305,17.847,16.632
26053,121.335,17.877,16.625
26087,121.36,17.916,16.631
26120,121.534,18.034,16.707
26153,121.681,18.115,16.751
26187,121.713,18.125,16.713
26220,121.592,18.062,16.621
26252,121.891,18.283,16.757
26286,121.987,18.334,16.755
26320,121.851,18.223,16.635
26353,121.252,17.741,16.335
26387,120.79,17.442,16.25
26420,120.874,17.528,16.471
26453,120.692,17.376,16.425
26485,120.511,17.271,16.388
26519,120.591,17.34,16.521
26553,120.559,17.312,16.541
26586,120.553,17.304,16.564
26620,120.603,17.351,16.617
26653,120.645,17.355,16.622
26686,120.602,17.316,16.608
26720,120.499,17.25,16.534
26752,120.476,17.265,16.544
26786,120.67,17.413,16.65
26820,120.909,17.559,16.736
26853,120.88,17.517,16.669
26886,120.743,17.439,16.575
26920,120.942,17.603,16.684
26953,121.041,17.651,16.684
26985,121.203,17.759,16.737
27019,121.117,17.711,16.601
27053,121.218,17.8,16.671
27086,121.469,17.974,16.774
27120,121.62,18.041,16.771
27153,121.638,18.041,16.721
27186,121.756,18.137,16.725
27219,121.875,18.223,16.752
27252,122.036,18.323,16.774
27286,121.717,18.024,16.564
27319,121.065,17.539,16.316
27353,120.927,17.478,16.424
27386,121.011,17.531,16.579
27419,120.846,17.419,16.52
27453,120.775,17.399,16.544
27485,120.76,17.388,16.562
27519,121.024,17.571,16.752
27553,121.089,17.595,16.786
27586,120.951,17.469,16.661
27619,120.803,17.383,16.596
27653,120.889,17.467,16.683
27686,121.145,17.631,16.795
27719,121.213,17.661,16.783
27752,121.269,17.705,16.766
27786,121.381,17.786,16.78
27819,121.641,17.966,16.892
27852,121.862,18.084,16.94
27886,121.979,18.124,16.922
27919,121.728,17.963,16.706
27952,121.895,18.119,16.81
27985,122.383,18.447,17.066
28019,122.479,18.459,17.012
28052,122.28,18.32,16.827
28086,122.565,18.559,16.967
28119,122.911,18.786,17.083
28152,123.081,18.851,17.072
28186,122.622,18.445,16.778
28219,122.009,17.994,16.538
28252,121.722,17.843,16.561
28286,121.991,18.061,16.81
28319,122.024,18.084,16.846
28352,122.05,18.103,16.871
28386,122.054,18.107,16.872
28419,122.264,18.254,16.984
28452,122.338,18.269,16.973
28485,122.06,18.061,16.807
28519,121.957,18.026,16.759
28552,122.296,18.276,16.996
28585,122.46,18.357,17.03
28619,122.461,18.351,16.98
28652,122.451,18.361,16.946
28685,122.685,18.54,17.049
28719,122.872,18.655,17.103
28752,122.992,18.714,17.093
28785,123.04,18.736,17.056
28819,122.982,18.714,16.967
28852,123.239,18.906,17.103
28885,123.584,19.139,17.229
28919,123.739,19.2,17.223
28952,123.536,19.018,17.032
28985,123.023,18.603,16.782
29019,122.502,18.241,16.631
29052,122.549,18.326,16.833
29085,122.713,18.454,17.008
29118,122.665,18.407,16.987
29152,122.481,18.274,16.908
29185,122.5,18.325,16.943
29218,122.763,18.508,17.101
29252,122.862,18.526,17.101
29285,122.669,18.366,16.955
29318,122.623,18.359,16.968
29352,122.854,18.529,17.115
29385,122.974,18.597,17.146
29418,122.897,18.564,17.036
29452,123.085,18.717,17.124
29485,123.347,18.877,17.236
29518,123.467,18.93,17.238
29552,123.357,18.837,17.113
29585,123.495,18.963,17.149
29618,123.635,19.066,17.189
29652,123.845,19.191,17.237
29685,123.84,19.178,17.16
29718,123.782,19.167,17.107
29751,123.737,19.145,17.075
29785,123.442,18.858,16.944
29818,122.891,18.421,16.729
29851,122.509,18.193,16.693
29885,122.605,18.314,16.907
29918,122.668,18.369,16.993
29951,122.55,18.269,16.941
29985,122.325,18.107,16.857
30018,122.373,18.18,16.953
30051,122.642,18.36,17.109
30085,122.535,18.259,17.009
30118,122.384,18.157,16.948
30151,122.573,18.308,17.085
30185,122.877,18.507,17.223
30218,123.14,18.644,17.294
30251,122.856,18.428,17.044
30285,122.889,18.494,17.059
30318,123.095,18.647,17.168
30351,123.206,18.715,17.181
30384,123.148,18.663,17.098
30418,123.17,18.703,17.086
30451,123.374,18.853,17.159
30484,123.746,19.106,17.318
30518,123.746,19.072,17.221
30551,123.714,19.067,17.162
30584,123.8,19.148,17.186
30618,124.066,19.332,17.27
30651,123.668,18.98,17.023
30684,122.897,18.401,16.698
30718,122.512,18.178,16.678
30751,122.597,18.285,16.883
30784,122.647,18.331,16.97
30818,122.614,18.285,16.968
30851,122.454,18.186,16.938
30884,122.48,18.216,16.985
30918,122.539,18.268,17.016
30951,122.529,18.249,17.021
30984,122.472,18.207,16.998
31017,122.434,18.188,16.978
31051,122.614,18.312,17.092
31084,122.566,18.285,17.046
31117,122.705,18.407,17.091
31151,122.947,18.56,17.178
31184,123.061,18.614,17.18
31217,123.127,18.661,17.178
31251,123.196,18.695,17.164
31284,123.318,18.775,17.187
31317,123.422,18.846,17.205
31351,123.662,19.019,17.289
31384,123.748,19.062,17.273
31417,123.818,19.106,17.246
31451,124.014,19.247,17.313
31484,123.81,19.026,17.192
31517,123.209,18.532,16.925
31551,122.926,18.342,16.919
31584,122.848,18.306,16.991
31617,122.906,18.366,17.105
31651,122.878,18.342,17.138
31684,122.819,18.291,17.137
31717,122.74,18.246,17.095
31750,122.818,18.323,17.184
31784,122.988,18.418,17.269
31817,122.996,18.399,17.267
31850,122.868,18.307,17.175
31884,122.897,18.343,17.193
31917,123.152,18.536,17.335
31950,123.287,18.611,17.333
31984,123.416,18.69,17.352
32017,123.571,18.787,17.388
32050,123.591,18.785,17.331
32084,123.611,18.806,17.307
32117,123.625,18.83,17.26
32150,123.734,18.925,17.313
32184,123.827,18.999,17.319
32217,123.943,19.085,17.334
32250,124.089,19.188,17.373
32284,124.15,19.232,17.336
32317,124.415,19.418,17.419
32350,124.566,19.498,17.434
32383,124.48,19.439,17.315
32417,124.232,19.22,17.208
32450,123.579,18.697,16.95
32483,123.338,18.52,17.013
32517,123.128,18.39,17.033
32550,123.032,18.359,17.088
32583,122.958,18.322,17.091
32617,122.948,18.311,17.16
32650,122.984,18.317,17.22
32683,122.867,18.258,17.178
32717,122.914,18.288,17.23
32750,122.901,18.27,17.247
32783,122.747,18.173,17.168
32817,122.735,18.184,17.16
32850,122.949,18.357,17.299
32883,123.044,18.413,17.31
32917,123.116,18.473,17.307
32950,123.306,18.59,17.376
32983,123.436,18.665,17.39
33016,123.373,18.605,17.275
33050,123.564,18.771,17.385
33083,123.801,18.913,17.437
33116,123.904,18.967,17.421
33150,123.907,18.972,17.363
33183,124.003,19.052,17.372
33216,124.183,19.183,17.43
33250,124.37,19.313,17.481
33283,124.601,19.462,17.537
33316,124.516,19.392,17.384
33350,124.612,19.489,17.419
33383,124.566,19.398,17.379
33416,123.786,18.777,16.978
33450,123.29,18.459,16.894
33483,123.15,18.429,16.988
33516,123.291,18.558,17.168
33550,123.386,18.63,17.285
33583,123.472,18.646,17.329
33616,123.251,18.487,17.173
33649,123.264,18.527,17.216
33683,123.433,18.629,17.299
33716,123.256,18.487,17.192
33749,123.224,18.47,17.203
33783,123.279,18.529,17.25
33816,123.425,18.64,17.314
33849,123.599,18.755,17.355
33883,123.741,18.856,17.398
33916,123.872,18.927,17.428
33949,123.9,18.93,17.372
33983,123.895,18.949,17.329
34016,124.226,19.185,17.483
34049,124.409,19.286,17.524
34083,124.388,19.253,17.437
34116,124.394,19.267,17.386
34149,124.596,19.435,17.48
34183,124.873,19.617,17.57
34216,124.992,19.681,17.544
34249,124.774,19.476,17.377
34282,124.195,19.012,17.118
34316,123.93,18.815,17.14
34349,123.84,18.773,17.204
34382,123.713,18.705,17.223
34416,123.697,18.73,17.288
34449,123.792,18.798,17.386
34482,123.779,18.781,17.368
34516,123.799,18.786,17.361
34549,123.651,18.687,17.294
34582,123.646,18.678,17.331
34616,123.841,18.808,17.445
34649,123.884,18.823,17.421
34682,123.925,18.854,17.426
34716,124.045,18.947,17.481
34749,124.27,19.097,17.549
34782,124.484,19.228,17.614
34816,124.451,19.176,17.497
34849,124.377,19.145,17.441
34882,124.321,19.125,17.365
34915,124.495,19.272,17.463
34949,124.664,19.391,17.519
34982,124.719,19.436,17.501
35015,124.843,19.516,17.523
35049,124.905,19.565,17.472
35082,125.054,19.685,17.551
35115,125.206,19.779,17.567
35149,124.92,19.528,17.4
35182,124.35,19.058,17.155
35215,124.087,18.857,17.17
35249,123.852,18.707,17.174
35282,123.715,18.64,17.197
35315,123.748,18.689,17.329
35349,123.788,18.679,17.391
35382,123.516,18.476,17.254
35415,123.501,18.501,17.334
35449,123.618,18.599,17.415
35482,123.703,18.638,17.469
35515,123.417,18.397,17.269
35549,123.365,18.398,17.291
35582,123.544,18.545,17.429
35615,123.618,18.606,17.446
35648,123.683,18.639,17.435
35682,123.746,18.679,17.42
35715,123.873,18.774,17.461
35748,124.039,18.878,17.519
35782,124.114,18.908,17.52
35815,124.058,18.878,17.442
35848,124.183,18.975,17.503
35882,124.193,18.988,17.451
35915,124.452,19.19,17.59
35948,124.536,19.236,17.551
35982,124.667,19.327,17.565
36015,124.792,19.402,17.562
36048,124.99,19.537,17.628
36082,125.164,19.643,17.641
36115,125.168,19.652,17.581
36148,125.244,19.697,17.598
36182,124.763,19.264,17.349
36215,124.05,18.711,17.073
36248,123.821,18.594,17.151
36281,123.801,18.616,17.281
36315,123.757,18.586,17.337
36348,123.535,18.443,17.279
36381,123.403,18.347,17.273
36415,123.385,18.356,17.36
36448,123.457,18.407,17.409
36481,123.352,18.328,17.342
36515,123.229,18.258,17.299
36548,123.252,18.308,17.351
36581,123.383,18.382,17.428
36615,123.542,18.491,17.485
36648,123.706,18.602,17.551
36681,123.758,18.628,17.514
36715,123.805,18.66,17.48
36748,123.957,18.774,17.557
36781,124.132,18.891,17.591
36815,124.219,18.926,17.582
36848,124.33,18.999,17.611
36881,124.271,18.969,17.518
36914,124.494,19.14,17.597
36948,124.657,19.258,17.647
36981,124.889,19.407,17.701
37014,124.854,19.358,17.586
37048,124.83,19.379,17.558
37081,125.024,19.535,17.61
37114,125.234,19.683,17.667
37148,125.294,19.717,17.626
37181,125.255,19.691,17.558
37214,124.838,19.336,17.343
37248,124.299,18.924,17.19
37281,123.953,18.685,17.167
37314,123.881,18.704,17.262
37348,124.148,18.903,17.5
37381,124.146,18.856,17.503
37414,123.997,18.733,17.428
37448,123.83,18.635,17.378
37481,123.961,18.748,17.475
37514,124.081,18.819,17.543
37547,123.919,18.676,17.424
37581,123.654,18.512,17.297
37614,123.919,18.752,17.519
37647,123.95,18.761,17.495
37681,123.992,18.801,17.509
37714,124.111,18.895,17.535
37747,124.307,19.024,17.613
37781,124.304,19.01,17.553
37814,124.393,19.061,17.535
37847,124.409,19.091,17.52
37881,124.501,19.173,17.539
37914,124.649,19.269,17.568
37947,124.661,19.277,17.516
37981,124.763,19.356,17.534
38014,124.805,19.403,17.532
38047,125.074,19.606,17.623
38081,125.163,19.669,17.607
38114,125.17,19.654,17.579
38147,124.523,19.112,17.229
38180,124.034,18.759,17.091
38214,123.364,18.354,16.861
38247,123.385,18.487,17.055
38280,123.441,18.584,17.145
38314,123.406,18.584,17.181
38347,123.457,18.616,17.209
38380,123.724,18.82,17.375
38414,123.856,18.873,17.399
38447,123.766,18.771,17.291
38480,123.708,18.714,17.252
38514,123.791,18.791,17.313
38547,123.912,18.877,17.373
38580,124.18,19.067,17.483
38614,124.502,19.264,17.601
38647,124.726,19.374,17.616
38680,124.843,19.435,17.604
38714,124.87,19.434,17.541
38747,125.01,19.534,17.598
38780,125.371,19.761,17.714
38814,125.304,19.689,17.575
38847,125.309,19.718,17.54
38880,125.598,19.94,17.689
38913,125.76,20.028,17.686
38947,125.854,20.097,17.681
38980,126.185,20.328,17.801
39013,126.306,20.384,17.758
39047,126.222,20.275,17.663
39080,125.656,19.775,17.412
39113,125.174,19.405,17.316
39147,125.089,19.358,17.426
39180,125.132,19.398,17.559
39213,125.056,19.328,17.562
39247,124.832,19.172,17.498
39280,124.794,19.14,17.547
39313,124.903,19.218,17.628
39347,124.927,19.24,17.668
39380,124.958,19.239,17.696
39413,124.915,19.194,17.655
39447,124.83,19.133,17.614
39480,124.917,19.207,17.676
39513,125.01,19.28,17.715
39546,125.107,19.361,17.758
39580,125.273,19.471,17.8
39613,125.248,19.45,17.739
39646,125.374,19.546,17.767
39680,125.434,19.593,17.768
39713,125.529,19.655,17.783
39746,125.731,19.796,17.843
39780,125.812,19.842,17.832
39813,125.898,19.901,17.817
39846,125.945,19.944,17.785
39880,126.044,20.035,17.823
39913,126.153,20.124,17.834
39946,126.387,20.29,17.882
39980,126.616,20.443,17.943
40013,126.701,20.485,17.89
40046,126.582,20.354,17.804
40080,125.829,19.73,17.457
40113,125.282,19.343,17.367
40146,125.072,19.238,17.437
40179,125.15,19.322,17.631
40213,125.113,19.285,17.67
40246,125.044,19.223,17.679
40279,125.133,19.258,17.79
40313,125.156,19.262,17.8
40346,125.005,19.151,17.689
40379,124.843,19.055,17.629
40413,124.933,19.139,17.751
40446,124.947,19.141,17.76
40479,124.876,19.099,17.73
40513,124.933,19.165,17.749
40546,125.219,19.37,17.888
40579,125.456,19.51,17.957
40613,125.499,19.52,17.914
40646,125.507,19.516,17.845
40679,125.572,19.581,17.871
40713,125.735,19.696,17.924
40746,125.798,19.733,17.902
40779,125.906,19.8,17.913
40812,126.046,19.912,17.956
40846,126.133,19.97,17.941
40879,126.137,19.981,17.909
40911,126.313,20.119,17.959
40946,126.321,20.114,17.882
40979,125.741,19.646,17.589
41012,125.239,19.268,17.496
41046,124.936,19.038,17.496
41079,124.65,18.864,17.494
41112,124.814,19.027,17.714
41146,124.96,19.101,17.833
41179,124.722,18.898,17.704
41212,124.382,18.69,17.545
41246,124.421,18.777,17.645
41279,124.741,19.001,17.863
41312,124.674,18.897,17.767
41346,124.378,18.683,17.599
41379,124.176,18.591,17.524
41411,124.609,18.963,17.84
41445,124.97,19.165,17.965
41479,124.765,18.988,17.772
41512,124.597,18.908,17.658
41545,124.868,19.132,17.815
41579,125.086,19.272,17.893
41612,125.177,19.317,17.85
41644,125.128,19.288,17.805
41679,125.411,19.485,17.92
41712,125.534,19.555,17.917
41745,125.575,19.578,17.898
41779,125.656,19.652,17.87
41812,125.98,19.878,18.003
41845,125.974,19.851,17.917
41879,125.526,19.48,17.659
41911,124.805,18.936,17.407
41945,124.444,18.697,17.41
41979,124.372,18.667,17.532
42012,124.259,18.612,17.554
42045,124.144,18.558,17.575
42078,124.018,18.474,17.571
42112,123.894,18.408,17.558
42144,124.003,18.514,17.649
42178,124.108,18.573,17.726
42212,124.039,18.506,17.682
42245,124.034,18.504,17.697
42278,123.957,18.451,17.641
42312,124.026,18.52,17.68
42345,124.268,18.699,17.804
42377,124.415,18.788,17.826
42411,124.494,18.832,17.815
42445,124.553,18.882,17.809
42478,124.672,18.955,17.839
42512,124.794,19.038,17.877
42545,124.991,19.162,17.931
42578,125.007,19.176,17.876
42612,125.008,19.197,17.81
42644,125.117,19.29,17.844
42678,125.371,19.473,17.961
42711,125.584,19.605,17.971
42745,125.536,19.551,17.871
42778,125.51,19.563,17.81
42811,125.224,19.316,17.668
42845,124.505,18.742,17.356
42877,124.079,18.451,17.335
42911,123.755,18.282,17.322
42945,123.639,18.285,17.401
42978,123.762,18.403,17.572
43011,123.785,18.393,17.599
43045,123.447,18.165,17.433
43078,123.52,18.268,17.523
43110,123.728,18.416,17.671
43144,123.684,18.343,17.61
43178,123.415,18.166,17.462
43211,123.512,18.271,17.55
43245,123.82,18.496,17.729
43278,124.085,18.648,17.821
43311,124.098,18.625,17.726
43345,124.125,18.659,17.695
43377,124.218,18.738,17.724
43411,124.355,18.827,17.753
43444,124.499,18.929,17.779
43478,124.414,18.868,17.675
43511,124.54,18.973,17.728
43544,124.811,19.172,17.829
43578,124.865,19.191,17.79
43610,124.891,19.223,17.764
43644,125.093,19.372,17.841
43678,125.273,19.509,17.872
43711,125.451,19.622,17.89
43744,125.307,19.465,17.757
43778,124.564,18.852,17.378
43811,123.823,18.36,17.163
43844,123.796,18.409,17.348
43877,123.83,18.466,17.491
43911,123.601,18.342,17.409
43944,123.481,18.3,17.394
43978,123.589,18.406,17.496
44011,123.747,18.528,17.593
44044,123.727,18.477,17.557
44077,123.471,18.297,17.42
44110,123.491,18.333,17.487
44144,123.508,18.37,17.522
44177,123.552,18.414,17.509
44211,123.655,18.506,17.536
44244,124.029,18.793,17.717
44277,124.27,18.926,17.753
44311,124.259,18.889,17.641
44344,124.301,18.939,17.625
44377,124.319,18.958,17.579
44411,124.476,19.084,17.645
44444,124.732,19.265,17.744
44477,124.712,19.246,17.669
44511,124.749,19.282,17.639
44544,124.354,18.972,17.422
44577,123.802,18.532,17.229
44610,123.06,18.039,16.949
44644,122.839,18.015,17.032
44677,123.047,18.24,17.294
44710,123.101,18.273,17.361
44744,123.009,18.197,17.306
44777,122.965,18.197,17.331
44810,123.21,18.367,17.518
44844,123.166,18.289,17.431
44877,123.1,18.234,17.438
44910,123.072,18.204,17.435
44944,123.267,18.347,17.558
44977,123.544,18.532,17.674
45010,123.706,18.58,17.695
45044,123.726,18.582,17.648
45077,123.771,18.617,17.623
45110,123.802,18.632,17.626
45144,123.859,18.688,17.62
45177,123.921,18.735,17.639
45210,124.068,18.846,17.699
45244,124.173,18.911,17.685
45277,124.124,18.887,17.602
45310,124.067,18.871,17.561
45343,123.969,18.741,17.542
45377,123.305,18.199,17.238
45410,122.838,17.893,17.156
45443,122.599,17.802,17.213
45477,122.695,17.902,17.395
45510,122.694,17.887,17.442
45543,122.507,17.744,17.378
45577,122.453,17.724,17.402
45610,122.395,17.718,17.413
45643,122.596,17.854,17.553
45677,122.401,17.696,17.418
45710,122.275,17.64,17.359
45743,122.182,17.604,17.313
45777,122.303,17.728,17.408
45810,122.421,17.827,17.468
45843,122.482,17.854,17.469
45877,122.669,17.987,17.565
45910,122.911,18.123,17.63
45943,122.679,17.938,17.407
45976,122.602,17.918,17.361
46010,122.727,18.056,17.457
46043,122.948,18.202,17.538
46076,123.146,18.341,17.593
46110,123.086,18.287,17.498
46143,123.101,18.337,17.473
46176,123.367,18.515,17.585
46210,122.98,18.162,17.351
46243,122.205,17.575,17.013
46276,121.728,17.298,16.947
46310,121.737,17.379,17.118
46343,121.647,17.338,17.173
46376,121.506,17.254,17.168
46410,121.366,17.165,17.142
46443,121.299,17.157,17.164
46476,121.473,17.302,17.29
46510,121.629,17.38,17.376
46543,121.385,17.19,17.236
46576,121.338,17.189,17.252
46609,121.479,17.288,17.314
46643,121.53,17.325,17.321
46676,121.605,17.391,17.347
46709,121.718,17.472,17.377
46743,121.777,17.508,17.365
46776,121.919,17.608,17.424
46809,121.939,17.609,17.366
46843,122.054,17.698,17.413
46876,122.122,17.734,17.389
46909,122.115,17.749,17.37
46943,122.268,17.865,17.397
46976,122.562,18.066,17.534
47009,122.517,18.009,17.427
47043,122.644,18.115,17.463
47076,122.789,18.232,17.485
47109,122.922,18.319,17.504
47143,122.991,18.337,17.499
47176,122.373,17.808,17.149
47209,121.506,17.225,16.83
47243,121.533,17.313,17.084
47276,121.544,17.341,17.162
47309,121.451,17.284,17.144
47342,121.311,17.213,17.134
47376,121.229,17.168,17.151
47409,121.32,17.259,17.264
47442,121.453,17.344,17.331
47476,121.38,17.271,17.256
47509,121.025,17.04,17.039
47542,120.895,17.01,17.021
47576,121.132,17.228,17.225
47609,121.245,17.303,17.271
47642,121.508,17.485,17.358
47676,121.656,17.542,17.369
47709,121.671,17.539,17.315
47742,121.77,17.612,17.321
47776,122.008,17.76,17.421
47809,121.943,17.707,17.296
47842,121.893,17.684,17.244
47876,122.138,17.882,17.377
47909,122.432,18.059,17.475
47942,122.22,17.898,17.269
47975,122.228,17.949,17.26
48009,122.577,18.204,17.417
48042,122.693,18.257,17.421
48075,121.914,17.628,16.951
48109,121.229,17.181,16.75
48142,121.383,17.349,17.052
48175,121.398,17.352,17.101
48209,121.227,17.277,17.032
48242,121.431,17.454,17.231
48275,122.001,17.805,17.535
48309,122.311,17.919,17.599
48342,122.066,17.685,17.356
48375,121.844,17.541,17.248
48409,121.848,17.567,17.28
48442,121.952,17.643,17.349
48475,121.961,17.671,17.323
48509,122.13,17.809,17.416
48542,122.331,17.95,17.508
48575,122.429,18.008,17.49
48608,122.451,17.998,17.453
48642,122.588,18.107,17.484
48675,122.86,18.287,17.589
48708,122.854,18.254,17.498
48742,122.974,18.338,17.53
48775,123.358,18.597,17.711
48808,123.673,18.761,17.804
48842,123.241,18.4,17.464
48875,122.552,17.89,17.17
48908,122.34,17.742,17.229
48942,122.299,17.711,17.347
48975,122.176,17.656,17.349
49008,122.063,17.597,17.329
49042,121.973,17.571,17.339
49075,122.107,17.675,17.447
49108,122.191,17.729,17.481
49142,121.984,17.576,17.336
49175,121.725,17.421,17.234
49208,121.773,17.496,17.315
49241,121.705,17.468,17.278
49275,121.883,17.633,17.379
49308,121.862,17.636,17.332
49341,122.072,17.79,17.435
49375,122.152,17.841,17.418
49408,122.074,17.785,17.299
49441,122.109,17.842,17.331
49475,122.214,17.92,17.368
49508,122.202,17.905,17.3
49541,122.118,17.867,17.237
49575,122.269,18.011,17.319
49608,122.417,18.115,17.358
49641,122.401,18.104,17.285
49675,122.182,17.929,17.151
49708,121.479,17.378,16.846
49741,120.847,16.961,16.673
49775,120.642,16.895,16.787
49808,120.565,16.91,16.9
49841,120.635,16.987,17.023
49874,120.376,16.772,16.89
49908,120.092,16.633,16.803
49941,120.167,16.753,16.94
49974,120.311,16.859,17.019
50008,120.249,16.789,16.959
50041,119.867,16.539,16.748
50074,119.854,16.596,16.826
50108,120.042,16.745,16.935
50141,120.275,16.906,17.044
50174,120.236,16.867,16.954
50208,120.221,16.872,16.912
50241,120.454,17.048,17.02
50274,120.609,17.142,17.052
50308,120.556,17.097,16.963
50341,120.706,17.219,17.025
50374,120.939,17.365,17.119
50408,121.023,17.4,17.112
50441,120.983,17.364,17.014
50474,121.091,17.461,17.037
50507,121.391,17.671,17.145
50541,121.423,17.666,17.09
50574,121.334,17.588,17.015
50607,120.73,17.084,16.738
50641,119.986,16.564,16.505
50674,119.636,16.403,16.505
50707,119.738,16.544,16.709
50741,119.854,16.638,16.85
50774,119.822,16.594,16.855
50807,119.558,16.409,16.702
50841,119.67,16.54,16.831
50874,119.644,16.53,16.811
50907,119.454,16.403,16.721
50941,119.359,16.372,16.698
50974,119.529,16.505,16.818
51007,119.479,16.465,16.757
51041,119.542,16.539,16.775
51074,119.655,16.634,16.819
51107,119.981,16.843,16.952
51140,120.099,16.9,16.942
51174,120.019,16.824,16.82
51207,120.181,16.959,16.899
51240,120.357,17.072,16.947
51274,120.421,17.11,16.932
51307,120.497,17.152,16.905
51340,120.637,17.262,16.946
51374,120.761,17.333,16.969
51407,120.959,17.472,17.004
51440,120.956,17.472,16.949
51474,120.631,17.18,16.774
51507,120.08,16.735,16.543
51540,119.843,16.61,16.582
51574,119.784,16.617,16.659
51607,119.863,16.711,16.768
51640,119.862,16.725,16.776
51674,119.877,16.743,16.769
51707,120.018,16.848,16.859
51740,120.004,16.829,16.813
51774,119.948,16.79,16.781
51807,119.879,16.737,16.768
51840,119.817,16.721,16.737
51873,119.773,16.719,16.708
51907,120.034,16.939,16.833
51940,120.399,17.183,17.012
51973,120.441,17.161,16.912
52007,120.292,17.068,16.79
52040,120.413,17.183,16.853
52073,120.768,17.413,17.029
52107,120.811,17.407,16.952
52140,120.79,17.405,16.893
52173,120.963,17.526,16.945
52207,121.206,17.679,17.05
52240,120.998,17.503,16.861
52273,120.302,16.957,16.512
52307,119.98,16.737,16.525
52340,119.819,16.636,16.577
52373,119.694,16.61,16.593
52407,119.87,16.777,16.789
52440,120.077,16.894,16.888
52473,120.03,16.839,16.838
52506,120.083,16.881,16.869
52540,120.306,17.025,16.98
52573,120.239,16.905,16.891
52606,119.951,16.717,16.731
52640,120.078,16.859,16.848
52673,120.274,16.992,16.929
52706,120.311,17.029,16.924
52740,120.489,17.152,16.957
52773,120.577,17.198,16.949
52806,120.799,17.356,17.029
52840,120.899,17.406,17.03
52873,120.989,17.449,16.988
52906,121.103,17.536,17.005
52940,121.3,17.671,17.079
52973,121.335,17.679,17.008
53006,121.49,17.801,17.049
53040,121.654,17.912,17.083
53073,121.913,18.083,17.168
53106,121.818,17.978,17.01
53139,121.015,17.334,16.61
53173,120.238,16.798,16.37
53206,120.073,16.734,16.526
53239,119.924,16.669,16.559
53273,119.718,16.589,16.553
53306,119.662,16.575,16.633
53339,119.706,16.61,16.736
53373,119.621,16.552,16.71
53406,119.556,16.541,16.686
53439,119.622,16.616,16.728
53473,119.702,16.647,16.781
53506,119.685,16.621,16.776
53539,119.671,16.623,16.74
53573,119.764,16.707,16.79
53606,120.098,16.93,16.939
53639,120.204,16.968,16.915
53673,120.249,17.0,16.882
53706,120.527,17.186,17.005
53739,120.728,17.298,17.038
53772,120.649,17.215,16.902
53806,120.648,17.249,16.869
53839,120.852,17.389,16.957
53872,121.091,17.565,17.038
53906,121.221,17.634,17.009
53939,121.398,17.751,17.046
53972,121.46,17.787,17.0
54006,121.619,17.902,17.025
54039,121.871,18.069,17.106
54072,121.846,18.004,17.006
54106,120.951,17.261,16.519
54139,120.084,16.681,16.288
54172,119.736,16.529,16.343
54206,119.937,16.731,16.64
54239,120.04,16.817,16.784
54272,119.704,16.572,16.583
54306,119.688,16.573,16.67
54339,119.744,16.644,16.749
54372,119.928,16.769,16.858
54405,119.785,16.654,16.729
54439,119.84,16.708,16.797
54472,119.812,16.671,16.755
54505,119.927,16.777,16.827
54539,119.979,16.809,16.835
54572,119.967,16.83,16.796
54605,120.282,17.053,16.924
54639,120.499,17.188,16.981
54672,120.837,17.384,17.089
54705,121.081,17.515,17.124
54739,121.25,17.578,17.099
54772,121.325,17.608,17.067
54805,121.466,17.704,17.097
54839,121.514,17.731,17.048
54872,121.729,17.884,17.115
54905,121.903,17.997,17.134
54939,121.957,18.036,17.087
54972,122.135,18.166,17.111
55005,122.257,18.253,17.11
55038,122.452,18.36,17.191
55072,121.563,17.597,16.699
55105,120.74,17.008,16.445
55138,120.385,16.838,16.473
55172,120.49,17.0,16.747
55205,120.515,17.038,16.816
55238,120.363,16.949,16.763
55272,120.218,16.867,16.728
55305,120.16,16.872,16.729
55338,120.349,17.024,16.872
55372,120.179,16.868,16.751
55405,120.029,16.797,16.691
55438,120.198,16.953,16.836
55472,120.409,17.09,16.945
55505,120.575,17.192,16.98
55538,120.754,17.297,17.011
55572,120.807,17.31,16.966
55605,120.922,17.386,16.965
55638,121.036,17.455,16.976
55672,121.15,17.527,16.986
55705,121.14,17.524,16.916
55738,121.461,17.751,17.082
55771,121.451,17.718,16.979
55805,121.58,17.833,17.038
55838,121.838,17.996,17.104
55871,121.973,18.083,17.099
55905,121.776,17.888,16.954
55938,120.952,17.228,16.54
55971,120.298,16.788,16.399
56005,120.203,16.795,16.567
56071,120.225,16.876,16.743
56105,120.328,16.967,16.855
56138,120.295,16.935,16.821
56171,120.224,16.912,16.779
56205,120.212,16.908,16.767
56238,120.076,16.806,16.737
56271,120.012,16.777,16.721
56305,120.145,16.895,16.8
56338,120.321,17.03,16.881
56371,120.652,17.254,17.029
56404,121.118,17.512,17.196
56438,121.173,17.49,17.105
56471,121.361,17.578,17.127
56504,121.366,17.551,17.06
56538,121.323,17.531,16.98
56571,121.362,17.578,17.0
56604,121.725,17.839,17.198
56638,121.851,17.87,17.161
56671,121.78,17.826,17.06
56704,121.831,17.871,17.066
56738,121.36,17.435,16.832
56771,119.649,16.231,16.099
56804,118.52,15.688,15.995
56838,118.554,15.85,16.321
56871,118.9,16.099,16.641
56938,119.4,16.329,16.941
56971,119.757,16.498,17.116
57004,120.093,16.638,17.235
57036,120.076,16.534,17.143
57071,120.039,16.457,17.081
57104,120.245,16.585,17.206
57137,120.424,16.672,17.245
57171,120.046,16.427,16.968
57204,120.35,16.698,17.183
57237,120.597,16.848,17.25
57271,120.804,16.961,17.299
57304,120.77,16.922,17.211
57337,120.723,16.909,17.13
57371,120.954,17.082,17.259
57404,121.368,17.332,17.419
57437,121.561,17.409,17.419
57471,121.63,17.434,17.41
57504,121.731,17.463,17.384
57536,121.78,17.504,17.381
57571,121.993,17.634,17.462
57604,122.006,17.597,17.456
57637,121.401,17.024,17.148
57670,120.671,16.44,16.91
57704,120.42,16.314,17.036
57737,120.336,16.274,17.136
57769,119.789,15.946,16.934
57804,119.862,16.057,17.16
57837,119.667,15.899,17.123
57870,119.538,15.856,17.132
57904,119.212,15.659,17.001
57937,119.377,15.821,17.211
57970,119.131,15.613,17.085
58004,118.415,15.191,16.722
58036,118.02,15.065,16.628
58070,117.873,15.089,16.653
58104,117.603,15.003,16.554
58137,117.616,15.101,16.635
58170,117.503,15.084,16.586
58204,117.46,15.125,16.579
58237,117.339,15.071,16.499
58269,117.24,15.061,16.451
58303,117.294,15.138,16.515
58337,117.058,15.006,16.358
58370,117.009,15.039,16.329
58403,117.19,15.232,16.455
58437,117.235,15.273,16.428
58470,117.451,15.407,16.51
58502,116.914,14.96,16.179
58536,115.551,14.047,15.589
58570,114.613,13.586,15.413
58603,114.251,13.509,15.505
58637,114.024,13.486,15.565
58670,113.884,13.502,15.615
58703,113.701,13.439,15.603
58737,113.732,13.534,15.716
58769,113.818,13.593,15.778
58803,113.51,13.43,15.612
58837,113.631,13.534,15.738
58870,113.881,13.675,15.866
58903,113.829,13.602,15.795
58936,113.765,13.579,15.75
58970,113.972,13.742,15.835
59002,114.205,13.893,15.912
59036,114.743,14.202,16.133
59070,114.902,14.228,16.099
59103,115.245,14.402,16.193
59136,115.469,14.497,16.208
59170,115.462,14.447,16.08
59203,115.67,14.604,16.165
59235,115.762,14.634,16.116
59269,115.773,14.623,16.061
59303,115.007,14.061,15.636
59336,113.982,13.416,15.249
59370,113.488,13.218,15.274
59403,113.515,13.356,15.504
59436,113.769,13.568,15.739
59470,114.098,13.759,15.945
59502,114.4,13.908,16.068
59536,114.232,13.76,15.875
59570,114.169,13.747,15.824
59603,114.375,13.871,15.925
59636,113.868,13.534,15.584
59669,113.725,13.548,15.59
59703,113.898,13.719,15.729
59735,114.366,14.018,15.962
59769,114.536,14.06,15.948
59803,114.492,14.033,15.851
59836,114.663,14.14,15.895
59869,114.975,14.328,16.009
59903,115.388,14.535,16.148
59936,115.449,14.509,16.078
59969,115.511,14.531,16.041
60002,115.929,14.78,16.231
60036,116.261,14.927,16.305
60069,116.486,15.004,16.353
60103,116.061,14.575,16.075
60136,115.547,14.151,15.896
60169,115.176,13.888,15.875
60203,114.898,13.784,15.881
60235,115.019,13.916,16.063
60269,115.203,14.035,16.253
60302,114.984,13.851,16.111
60336,114.783,13.768,16.066
60369,114.963,13.903,16.22
60402,114.942,13.866,16.204
60436,114.762,13.737,16.118
60469,114.622,13.661,16.047
60502,114.687,13.752,16.119
60536,114.794,13.841,16.21
60569,114.883,13.913,16.214
60602,114.934,13.953,16.193
60636,115.086,14.062,16.249
60669,115.103,14.06,16.19
60702,115.024,14.02,16.123
60735,115.059,14.078,16.123
60769,115.289,14.224,16.228
60802,115.515,14.365,16.316
60836,115.763,14.479,16.36
60869,115.879,14.548,16.351
60902,116.053,14.641,16.376
60935,116.065,14.594,16.345
60969,115.388,14.033,15.976
61002,114.958,13.765,15.895
61035,114.851,13.76,15.993
61069,114.986,13.89,16.166
61102,114.827,13.797,16.094
61135,114.724,13.743,16.072
61169,114.717,13.779,16.107
61202,115.015,13.981,16.302
61235,115.095,13.999,16.309
61269,115.18,14.019,16.323
61302,115.048,13.902,16.223
61335,114.877,13.841,16.116
61369,115.423,14.227,16.442
61402,115.741,14.363,16.507
61435,115.65,14.262,16.341
61469,115.708,14.324,16.346
61502,116.019,14.528,16.477
61535,116.301,14.665,16.578
61568,116.325,14.639,16.504
61602,116.428,14.683,16.499
61635,116.66,14.832,16.572
61668,116.878,14.945,16.635
61702,117.056,15.027,16.645
61735,117.09,15.029,16.589
61768,116.777,14.752,16.403
61802,116.125,14.275,16.118
61835,115.741,14.061,16.056
61868,115.728,14.138,16.217
61902,115.838,14.261,16.32
61935,115.899,14.32,16.384
61968,115.842,14.293,16.317
62002,116.002,14.441,16.432
62035,116.146,14.511,16.474
62068,116.137,14.488,16.425
62102,116.076,14.435,16.364
62135,116.077,14.452,16.364
62168,116.279,14.607,16.471
62201,116.46,14.717,16.527
62235,116.438,14.693,16.438
62268,116.575,14.802,16.482
62301,116.705,14.878,16.527
62335,116.854,14.953,16.528
62368,116.881,14.957,16.493
62401,117.142,15.127,16.602
62435,117.244,15.154,16.582
62468,117.36,15.23,16.595
62501,117.439,15.252,16.569
62535,116.867,14.789,16.24
62568,116.304,14.414,16.061
62601,115.967,14.253,16.041
62635,115.963,14.353,16.185
62668,116.27,14.592,16.425
62701,116.371,14.633,16.496
62735,116.26,14.543,16.372
62768,116.275,14.571,16.353
62801,116.413,14.671,16.443
62834,116.356,14.619,16.388
62868,116.427,14.669,16.443
62901,116.42,14.662,16.412
62934,116.647,14.847,16.54
62968,117.005,15.057,16.656
63001,117.111,15.074,16.611
63034,117.133,15.077,16.555
63068,117.333,15.199,16.615
63101,117.433,15.242,16.598
63134,117.587,15.337,16.632
63168,117.761,15.436,16.692
63201,117.93,15.532,16.714
63234,118.088,15.621,16.739
63268,118.192,15.671,16.722
63301,118.024,15.512,16.6
63334,117.265,14.931,16.233
63368,116.573,14.484,16.014
63401,116.314,14.42,16.101
63434,116.349,14.537,16.276
63467,116.435,14.624,16.403
63501,116.427,14.598,16.431
63534,116.215,14.466,16.335
63567,116.25,14.534,16.396
63601,116.342,14.585,16.434
63634,116.232,14.512,16.379
63667,116.28,14.541,16.433
63701,116.34,14.586,16.457
63734,116.658,14.794,16.623
63767,116.713,14.776,16.586
63801,116.736,14.785,16.539
63834,116.905,14.892,16.601
63867,116.991,14.935,16.612
63901,117.114,15.008,16.626
63934,116.974,14.903,16.48
63967,117.117,15.021,16.554
64001,117.264,15.13,16.612
64034,117.395,15.211,16.623
64067,117.647,15.355,16.707
64101,117.623,15.324,16.606
64134,117.488,15.21,16.513
64167,116.757,14.646,16.158
64200,116.034,14.187,15.957
64234,115.796,14.133,16.054
64267,115.86,14.248,16.244
64300,115.692,14.169,16.217
64334,115.634,14.168,16.252
64367,115.66,14.183,16.305
64400,115.749,14.247,16.358
64434,115.671,14.193,16.324
64467,115.597,14.15,16.294
64500,115.583,14.151,16.314
64534,115.568,14.133,16.304
64567,115.72,14.253,16.386
64600,115.904,14.371,16.46
64634,115.996,14.408,16.447
64667,116.04,14.421,16.424
64700,116.176,14.495,16.471
64734,116.209,14.522,16.436
64767,116.314,14.597,16.481
64800,116.54,14.728,16.56
64833,116.681,14.791,16.581
64867,116.654,14.761,16.495
64900,116.84,14.909,16.564
64933,117.132,15.08,16.673
64967,117.178,15.071,16.601
65000,116.989,14.974,16.424
65033,116.653,14.708,16.282
65067,115.978,14.199,16.011
65100,115.531,13.969,15.956
65133,115.35,13.923,16.028
65167,115.21,13.919,16.082
65200,115.353,14.051,16.252
65233,115.21,13.948,16.188
65267,115.07,13.902,16.128
65300,115.192,14.017,16.247
65333,115.195,14.005,16.24
65367,115.006,13.866,16.128
65400,114.842,13.793,16.08
65433,114.92,13.892,16.17
65466,115.155,14.052,16.303
65500,115.321,14.131,16.32
65533,115.396,14.172,16.333
65566,115.417,14.185,16.282
65600,115.491,14.23,16.303
65633,115.13,13.988,16.068
65666,115.204,14.09,16.169
65700,115.234,14.121,16.205
65733,115.214,14.125,16.192
65766,115.348,14.229,16.261
65800,115.628,14.402,16.395
65833,115.784,14.471,16.426
65866,115.676,14.377,16.279
65900,115.694,14.361,16.274
65933,114.872,13.736,15.863
65966,114.199,13.336,15.698
66000,114.022,13.321,15.81
66033,114.129,13.494,16.019
66066,114.269,13.597,16.151
66099,114.361,13.643,16.223
66133,114.429,13.669,16.22
66166,114.438,13.662,16.198
66199,114.372,13.612,16.158
66233,114.433,13.648,16.224
66266,114.477,13.661,16.243
66299,114.515,13.674,16.245
66333,114.512,13.689,16.212
66366,114.757,13.869,16.337
66399,114.942,13.958,16.374
66433,115.076,14.022,16.394
66466,115.163,14.058,16.369
66499,115.27,14.115,16.375
66533,115.42,14.199,16.422
66566,115.649,14.315,16.481
66599,115.632,14.274,16.374
66633,115.74,14.338,16.42
66666,115.921,14.451,16.458
66699,116.063,14.526,16.484
66732,116.18,14.581,16.498
66766,115.991,14.381,16.349
66799,115.039,13.677,15.893
66832,114.445,13.356,15.824
66866,114.256,13.326,15.942
66899,114.195,13.371,16.04
66932,114.307,13.458,16.171
66966,114.107,13.338,16.105
66999,114.161,13.396,16.162
67032,114.236,13.449,16.215
67066,114.238,13.458,16.237
67099,114.218,13.421,16.217
67132,114.254,13.433,16.234
67166,114.269,13.453,16.25
67199,114.367,13.531,16.298
67232,114.533,13.648,16.362
67266,114.664,13.701,16.383
67299,114.731,13.727,16.352
67332,114.718,13.715,16.324
67366,114.891,13.836,16.406
67399,115.026,13.907,16.415
67432,114.923,13.834,16.301
67465,114.97,13.892,16.323
67499,115.167,14.038,16.407
67532,115.311,14.115,16.416
67565,115.517,14.234,16.457
67599,115.731,14.355,16.492
67632,115.885,14.42,16.507
67665,115.696,14.26,16.377
67699,114.832,13.61,15.931
67732,114.02,13.135,15.698
67765,113.847,13.123,15.851
67799,113.856,13.195,16.002
67832,113.733,13.159,16.025
67865,113.642,13.11,16.047
67899,113.477,13.017,16.002
67932,113.509,13.081,16.108
67965,113.654,13.163,16.2
67999,113.609,13.106,16.151
68032,113.429,13.01,16.091
68065,113.45,13.047,16.128
68098,113.671,13.186,16.258
68132,113.886,13.301,16.333
68165,113.837,13.265,16.255
68198,114.008,13.376,16.316
68232,114.177,13.474,16.372
68265,114.309,13.526,16.374
68298,114.364,13.525,16.353
68332,114.395,13.557,16.337
68365,114.517,13.627,16.374
68398,114.591,13.669,16.372
68432,114.772,13.783,16.422
68465,114.969,13.899,16.476
68498,115.139,13.984,16.499
68532,115.363,14.111,16.529
68565,115.424,14.127,16.487
68598,115.534,14.176,16.498
68632,114.855,13.639,16.126
68665,113.984,13.076,15.786
68698,113.594,12.928,15.803
68731,113.653,13.063,16.032
68765,113.756,13.158,16.157
68798,113.567,13.056,16.098
68831,113.457,13.006,16.063
68865,113.633,13.155,16.221
68898,113.686,13.187,16.227
68931,113.617,13.128,16.187
68965,113.478,13.039,16.094
68998,113.548,13.122,16.162
69031,113.788,13.282,16.295
69065,113.94,13.379,16.345
69098,113.99,13.398,16.286
69131,114.19,13.526,16.366
69165,114.357,13.596,16.364
69198,114.426,13.622,16.328
69231,114.501,13.671,16.319
69265,114.789,13.849,16.448
69298,114.982,13.947,16.479
69331,115.197,14.054,16.522
69364,115.21,14.044,16.427
69398,115.459,14.21,16.522
69431,115.779,14.395,16.635
69464,115.922,14.45,16.601
69498,115.897,14.379,16.515
69531,115.006,13.694,16.012
69564,114.428,13.371,15.891
69598,114.386,13.405,16.102
69631,114.504,13.524,16.293
69664,114.533,13.574,16.35
69698,114.714,13.69,16.469
69731,114.723,13.675,16.428
69764,114.8,13.722,16.465
69798,114.767,13.696,16.416
69831,114.665,13.615,16.351
69864,114.792,13.725,16.46
69898,114.937,13.805,16.511
69931,114.963,13.828,16.469
69964,115.241,14.016,16.572
69997,115.471,14.14,16.641
70031,115.53,14.146,16.584
70064,115.685,14.231,16.587
70097,115.919,14.372,16.683
70131,115.928,14.338,16.616
70164,115.931,14.356,16.56
70197,116.143,14.502,16.629
70231,116.462,14.697,16.766
70264,116.542,14.708,16.709
70297,116.606,14.744,16.643
70331,116.881,14.922,16.765
70364,117.156,15.077,16.836
70397,117.054,14.974,16.68
70431,116.893,14.837,16.583
70464,115.999,14.159,16.171
70497,115.29,13.736,15.995
70531,115.053,13.684,16.118
70564,115.048,13.763,16.284
70597,115.194,13.886,16.432
70630,115.043,13.776,16.375
70664,115.04,13.799,16.438
70697,115.143,13.876,16.505
70730,115.166,13.891,16.515
70764,115.206,13.894,16.517
70797,115.162,13.854,16.482
70830,115.115,13.842,16.471
70864,115.272,13.966,16.564
70897,115.475,14.089,16.634
70930,115.709,14.218,16.694
70964,115.852,14.294,16.705
70997,115.918,14.321,16.668
71030,116.088,14.413,16.72
71064,116.242,14.493,16.739
71097,116.173,14.445,16.632
71130,116.411,14.609,16.733
71164,116.622,14.732,16.774
71197,116.865,14.863,16.845
71230,116.983,14.908,16.825
71263,117.091,14.983,16.817
71297,117.297,15.095,16.848
71330,117.404,15.163,16.836
71363,117.45,15.159,16.822
71397,116.606,14.484,16.37
71430,115.715,13.91,16.067
71463,115.299,13.752,16.114
71497,115.485,13.97,16.426
71530,115.625,14.07,16.562
71563,115.389,13.915,16.434
71597,115.264,13.85,16.435
71630,115.306,13.921,16.501
71663,115.646,14.134,16.687
71697,115.534,14.032,16.584
71730,115.406,13.942,16.49
71763,115.464,14.007,16.557
71797,115.705,14.168,16.694
71830,115.907,14.275,16.735
71863,116.026,14.346,16.742
71897,116.198,14.45,16.779
71930,116.361,14.534,16.806
71963,116.4,14.545,16.739
71996,116.485,14.597,16.739
72030,116.433,14.56,16.673
72063,116.424,14.573,16.656
72096,116.543,14.666,16.689
72130,116.681,14.766,16.742
72163,116.831,14.862,16.774
72196,117.027,14.981,16.817
72230,117.158,15.046,16.811
72263,117.438,15.21,16.933
72296,116.828,14.662,16.539
72330,115.789,13.944,16.128
72363,115.248,13.695,16.091
72396,115.429,13.91,16.426
72430,115.462,13.95,16.498
72463,115.354,13.915,16.485
72496,115.515,14.034,16.623
72530,115.66,14.12,16.669
72563,115.555,14.043,16.597
72596,115.434,13.961,16.526
72629,115.529,14.035,16.621
72663,115.832,14.196,16.792
72696,115.823,14.171,16.729
72729,116.008,14.302,16.808
72763,116.243,14.424,16.875
72796,116.295,14.429,16.822
72829,116.491,14.556,16.881
72863,116.654,14.649,16.903
72896,116.847,14.744,16.912
72929,116.987,14.814,16.929
72963,117.103,14.871,16.917
72996,117.287,14.987,16.966
73029,117.449,15.068,16.993
73063,117.528,15.101,16.95
73096,117.505,15.053,16.895
73129,116.826,14.509,16.561
73163,115.914,13.911,16.219
73196,115.646,13.843,16.335
73229,115.729,13.99,16.543
73262,115.954,14.147,16.756
73296,115.815,14.051,16.672
73329,115.816,14.067,16.687
73362,115.967,14.182,16.762
73396,116.076,14.232,16.812
73429,115.968,14.118,16.739
73462,115.977,14.136,16.761
73496,116.024,14.166,16.784
73529,116.236,14.311,16.872
73562,116.504,14.475,16.979
73596,116.649,14.533,17.002
73629,116.831,14.628,17.013
73661,116.922,14.668,16.994
73696,117.097,14.768,17.029
73729,117.146,14.789,16.977
73762,117.201,14.819,16.981
73796,117.407,14.954,17.028
73829,117.553,15.037,17.048
73862,117.681,15.106,17.066
73894,117.835,15.203,17.081
73929,118.099,15.362,17.157
73962,118.117,15.329,17.091
73995,117.493,14.836,16.734
74029,116.393,14.087,16.282
74062,115.905,13.868,16.303
74095,115.855,13.927,16.505
74129,115.784,13.936,16.593
74161,115.683,13.898,16.605
74195,115.617,13.862,16.63
74229,115.656,13.911,16.705
74262,115.791,14.015,16.796
74295,115.783,13.988,16.776
74329,115.721,13.954,16.742
74362,115.846,14.036,16.821
74394,116.018,14.121,16.89
74429,116.163,14.207,16.935
74462,116.26,14.268,16.929
74495,116.426,14.368,16.979
74528,116.522,14.426,16.955
74562,116.641,14.476,16.949
74595,116.896,14.629,17.044
74627,116.989,14.663,16.987
74661,117.111,14.732,16.998
74695,117.175,14.772,16.995
74728,117.303,14.858,16.999
74762,117.544,15.007,17.06
74795,117.742,15.106,17.107
74828,117.926,15.211,17.135
74862,118.026,15.257,17.107
74894,118.236,15.387,17.177
74928,118.047,15.189,17.015
74962,116.918,14.346,16.424
74995,116.255,14.006,16.314
75028,116.279,14.129,16.579
75062,116.365,14.226,16.753
75095,116.283,14.194,16.737
75127,116.271,14.194,16.776
75161,116.303,14.213,16.837
75195,116.403,14.295,16.865
75228,116.549,14.384,16.933
75261,116.499,14.326,16.89
75295,116.527,14.334,16.9
75328,116.655,14.427,16.966
75360,116.925,14.596,17.099
75394,117.046,14.644,17.073
75428,117.187,14.734,17.085
75461,117.459,14.893,17.175
75495,117.732,15.024,17.254
75528,117.736,14.999,17.155
75561,117.757,15.006,17.103
75595,118.028,15.187,17.213
75627,118.238,15.302,17.264
75661,118.341,15.342,17.244
75695,118.446,15.403,17.221
75728,118.7,15.552,17.306
75761,118.927,15.692,17.342
75795,118.89,15.638,17.209
75828,118.906,15.654,17.2
75860,118.298,15.16,16.89
75894,117.337,14.525,16.506
75928,117.046,14.431,16.595
75961,117.062,14.521,16.777
75994,117.037,14.565,16.858
76028,117.192,14.688,16.993
76061,117.2,14.672,16.964
76094,117.192,14.685,16.952
76127,117.292,14.745,17.006
76161,117.204,14.679,16.96
76194,117.202,14.669,16.95
76228,117.14,14.653,16.925
76261,117.311,14.802,16.997
76294,117.677,15.038,17.163
76328,117.858,15.118,17.163
76360,117.886,15.122,17.106
76394,118.014,15.205,17.133
76428,118.235,15.347,17.187
76461,118.402,15.429,17.236
76494,118.424,15.426,17.176
76527,118.464,15.457,17.14
76561,118.647,15.582,17.175
76594,118.787,15.656,17.196
76627,118.84,15.698,17.159
76661,118.911,15.736,17.162
76694,118.237,15.176,16.785
76727,117.477,14.684,16.529
76761,117.081,14.502,16.505
76794,117.108,14.626,16.703
76827,117.314,14.801,16.892
76860,117.306,14.785,16.911
76894,117.21,14.747,16.864
76927,117.278,14.821,16.924
76961,117.432,14.918,16.972
76994,117.286,14.793,16.881
77027,117.221,14.762,16.844
77061,117.399,14.901,16.985
77094,117.582,15.017,17.029
77127,117.611,15.016,16.992
77160,117.857,15.193,17.102
77194,117.986,15.25,17.096
77227,118.061,15.285,17.065
77260,118.228,15.397,17.103
77294,118.303,15.41,17.097
77327,118.342,15.433,17.068
77360,118.434,15.497,17.068
77394,118.576,15.589,17.119
77427,118.751,15.7,17.152
77460,118.892,15.777,17.165
77494,118.89,15.769,17.092
77527,118.563,15.485,16.907
77560,117.584,14.785,16.444
77594,116.885,14.386,16.328
77627,116.808,14.446,16.539
77660,116.982,14.608,16.78
77694,116.904,14.558,16.806
77727,116.66,14.389,16.689
77760,116.679,14.442,16.761
77793,116.789,14.531,16.858
77827,116.837,14.575,16.892
77860,116.868,14.575,16.897
77893,116.82,14.529,16.86
77927,116.884,14.581,16.895
77960,116.851,14.575,16.849
77993,117.079,14.774,16.972
78027,117.579,15.05,17.163
78060,117.567,14.984,17.046
78093,117.637,15.009,17.037
78127,117.862,15.15,17.116
78160,117.873,15.136,17.024
78193,118.14,15.298,17.136
78227,118.294,15.388,17.175
78260,118.455,15.479,17.212
78293,118.624,15.562,17.205
78327,118.693,15.587,17.147
78360,118.706,15.592,17.121
78393,118.059,15.049,16.756
78426,117.255,14.516,16.478
78460,116.909,14.385,16.524
78493,117.055,14.559,16.792
78526,117.089,14.597,16.88
78560,117.07,14.578,16.909
78593,116.89,14.457,16.816
78626,117.087,14.628,16.976
78660,117.096,14.623,16.967
78693,117.143,14.648,16.977
78726,117.012,14.555,16.879
78760,117.044,14.589,16.931
78793,117.175,14.692,16.996
78826,117.32,14.772,17.026
78860,117.436,14.85,17.045
78893,117.549,14.918,17.05
78926,117.657,14.99,17.064
78960,117.839,15.094,17.107
78993,117.91,15.126,17.077
79026,117.984,15.173,17.06
79059,118.292,15.362,17.206
79093,118.356,15.364,17.134
79126,118.439,15.421,17.131
79159,118.592,15.53,17.163
79193,118.725,15.605,17.173
79226,118.409,15.314,16.989
79259,117.335,14.555,16.458
79293,116.823,14.305,16.413
79326,116.821,14.401,16.621
79359,116.948,14.546,16.806
79393,117.03,14.617,16.886
79426,116.935,14.543,16.828
79459,116.83,14.505,16.76
79493,116.923,14.597,16.844
79526,116.963,14.603,16.861
79559,116.767,14.464,16.746
79593,116.615,14.412,16.688
79626,116.832,14.59,16.838
79659,117.078,14.753,16.951
79692,117.252,14.841,16.964
79726,117.292,14.86,16.92
79759,117.491,14.985,17.006
79792,117.657,15.068,17.02
79826,117.865,15.186,17.086
79859,117.943,15.207,17.037
79892,118.088,15.302,17.06
79926,118.179,15.346,17.036
79959,118.207,15.371,17.001
79992,118.228,15.369,16.986
80026,117.544,14.821,16.618
80059,116.782,14.328,16.37
80092,116.567,14.28,16.462
80126,116.541,14.348,16.614
80159,116.517,14.378,16.668
80192,116.587,14.46,16.756
80226,116.571,14.449,16.734
80259,116.681,14.557,16.808
80292,116.763,14.583,16.857
80326,116.756,14.548,16.821
80359,116.715,14.505,16.779
80392,116.795,14.579,16.838
80425,117.05,14.749,16.935
80459,117.242,14.853,16.968
80492,117.45,14.969,17.025
80525,117.477,14.968,16.953
80559,117.593,15.048,16.974
80592,117.939,15.252,17.111
