time,R,G,B
0,168.529,18.162,0.0
33,169.046,18.453,0.0
66,169.261,18.597,0.0
100,169.559,18.832,0.0
133,169.914,19.092,0.0
166,170.029,19.23,0.0
200,170.0,19.193,0.0
233,169.812,19.045,0.0
266,169.79,18.985,0.0
300,169.861,19.007,0.0
333,169.774,19.022,0.0
366,169.465,18.882,0.0
400,169.007,18.664,0.0
433,168.756,18.498,0.0
466,168.792,18.482,0.0
499,168.817,18.493,0.0
533,168.689,18.482,0.0
566,167.214,17.65,0.0
599,165.122,16.348,0.0
633,163.674,15.444,0.0
666,163.324,15.306,0.0
699,163.772,15.517,0.0
733,163.634,15.443,0.0
766,162.6,15.019,0.0
799,161.872,14.6,0.0
833,161.528,14.424,0.0
866,161.65,14.43,0.0
899,161.708,14.509,0.0
931,161.898,14.637,0.0
966,162.449,14.989,0.0
999,163.961,15.738,0.0
1032,165.372,16.735,0.0
1066,166.449,17.422,0.0
1099,167.977,18.071,0.0
1132,168.773,18.686,0.0
1166,168.663,18.844,0.0
1199,168.855,19.01,0.0
1232,168.715,19.028,0.0
1265,167.736,18.555,0.0
1299,166.849,17.984,0.0
1332,166.181,17.524,0.0
1365,164.888,16.652,0.0
1399,163.232,15.426,0.0
1431,162.337,14.685,0.0
1465,162.187,14.68,0.0
1499,162.487,14.828,0.0
1532,162.622,14.904,0.0
1565,162.703,14.935,0.0
1598,162.957,15.086,0.0
1632,163.354,15.326,0.0
1665,163.627,15.563,0.0
1698,163.503,15.563,0.0
1732,163.468,15.552,0.0
1765,163.443,15.568,0.0
1798,163.572,15.663,0.0
1832,163.854,15.851,0.0
1865,164.175,16.073,0.0
1898,164.419,16.277,0.0
1931,164.602,16.412,0.0
1965,164.788,16.564,0.0
1998,164.981,16.727,0.0
2032,165.068,16.836,0.0
2065,165.257,16.816,0.0
2098,165.342,16.895,0.0
2131,165.581,17.074,0.0
2165,165.805,17.22,0.0
2198,166.063,17.422,0.0
2231,166.312,17.592,0.0
2265,166.448,17.724,0.0
2298,166.588,17.85,0.0
2331,166.828,18.028,0.0
2365,166.84,18.148,0.0
2398,165.87,17.596,0.0
2431,164.743,16.693,0.0
2465,164.173,16.112,0.0
2498,164.284,16.282,0.0
2531,164.801,16.581,0.0
2564,164.966,16.745,0.0
2598,165.056,16.801,0.0
2631,165.339,16.789,0.0
2664,165.638,17.01,0.0
2698,165.736,17.137,0.0
2731,165.773,17.221,0.0
2764,165.673,17.178,0.0
2798,165.678,17.196,0.0
2831,165.807,17.271,0.0
2864,166.001,17.44,0.0
2897,166.241,17.63,0.0
2931,166.406,17.78,0.0
2964,166.489,17.894,0.0
2997,166.637,18.017,0.0
3031,166.742,18.147,0.0
3064,166.843,18.265,0.0
3097,166.915,18.337,0.0
3131,167.059,18.43,0.0
3164,167.185,18.561,0.0
3197,167.446,18.729,0.0
3231,167.686,18.928,0.0
3264,167.992,19.146,0.0
3297,168.413,19.44,0.0
3330,168.813,19.725,0.0
3364,169.246,20.027,0.0
3397,169.487,20.262,0.0
3430,169.05,20.111,0.0
3464,167.537,18.994,0.0
3497,166.623,18.102,0.0
3530,166.562,17.862,0.0
3564,166.9,18.09,0.0
3597,167.124,18.282,0.0
3630,167.055,18.31,0.0
3664,167.008,18.308,0.0
3697,167.095,18.405,0.0
3730,167.226,18.549,0.0
3763,167.208,18.609,0.0
3797,167.05,18.526,0.0
3830,166.935,18.441,0.0
3863,166.884,18.439,0.0
3897,166.972,18.509,0.0
3930,166.977,18.58,0.0
3963,166.853,18.557,0.0
3997,166.866,18.6,0.0
4030,167.192,18.923,0.0
4063,167.138,19.015,0.0
4096,167.071,19.018,0.0
4130,167.19,19.081,0.0
4162,167.508,19.198,0.0
4196,167.717,19.303,0.0
4230,167.936,19.411,0.0
4263,168.094,19.57,0.0
4296,168.233,19.692,0.0
4330,168.646,19.95,0.0
4363,169.274,20.428,0.0
4396,169.874,20.944,0.0
4430,169.731,20.989,0.0
4463,168.388,20.04,0.0
4496,167.387,19.184,0.0
4530,167.086,18.828,0.0
4563,167.406,19.02,0.0
4596,167.744,19.278,0.0
4629,167.826,19.405,0.0
4662,167.759,19.38,0.0
4696,167.768,19.432,0.0
4729,167.789,19.494,0.0
4763,167.707,19.457,0.0
4796,167.634,19.412,0.0
4829,167.57,19.394,0.0
4863,167.496,19.393,0.0
4896,167.62,19.503,0.0
4929,167.67,19.615,0.0
4962,167.767,19.704,0.0
4996,167.856,19.805,0.0
5029,168.094,19.941,0.0
5062,168.373,20.108,0.0
5096,168.604,20.318,0.0
5129,168.776,20.482,0.0
5162,168.902,20.592,0.0
5196,169.101,20.739,0.0
5229,169.302,20.895,0.0
5262,169.473,21.024,0.0
5296,169.552,21.131,0.0
5329,169.427,21.089,0.0
5362,168.366,20.364,0.0
5395,167.429,19.488,0.0
5429,167.116,19.028,0.0
5462,167.529,19.212,0.0
5495,168.01,19.542,0.0
5529,168.397,19.817,0.0
5562,168.659,19.991,0.0
5595,168.904,20.186,0.0
5629,169.329,20.505,0.0
5662,169.649,20.815,0.0
5695,169.792,20.974,0.0
5729,169.951,21.177,0.0
5762,170.144,21.373,0.0
5795,170.712,21.809,0.0
5828,171.338,22.39,0.0
5862,172.039,23.082,0.0
5895,173.29,24.082,0.0
5928,174.096,24.946,0.0
5962,174.353,25.361,0.0
5995,174.283,25.479,0.0
6028,174.087,25.411,0.0
6062,173.773,25.259,0.0
6095,173.623,25.182,0.0
6128,173.528,25.16,0.0
6161,173.424,25.12,0.0
6195,173.239,25.05,0.0
6228,172.945,24.922,0.0
6261,172.788,24.808,0.0
6295,172.686,24.777,0.0
6328,172.13,24.51,0.0
6361,170.576,23.374,0.0
6395,168.944,21.849,0.0
6428,168.183,20.947,0.0
6461,168.482,20.92,0.0
6495,169.027,21.251,0.0
6528,169.326,21.473,0.0
6561,169.367,21.532,0.0
6594,169.441,21.564,0.0
6628,169.616,21.718,0.0
6661,169.623,21.805,0.0
6694,169.632,21.88,0.0
6728,169.546,21.823,0.0
6761,169.606,21.85,0.0
6794,169.698,21.936,0.0
6828,169.937,22.143,0.0
6861,170.144,22.355,0.0
6893,170.346,22.568,0.0
6928,170.445,22.675,0.0
6961,170.565,22.793,0.0
6994,170.707,22.946,0.0
7027,170.776,23.04,0.0
7061,170.852,23.128,0.0
7094,170.836,23.191,0.0
7127,170.871,23.242,0.0
7161,171.013,23.36,0.0
7194,171.174,23.494,0.0
7227,171.305,23.65,0.0
7261,171.467,23.808,0.0
7294,171.607,23.95,0.0
7327,171.774,24.113,0.0
7361,171.82,24.215,0.0
7393,171.489,24.104,0.0
7427,170.108,23.081,0.0
7460,168.853,21.792,0.0
7494,168.512,21.154,0.0
7527,168.961,21.286,0.0
7560,169.637,21.713,0.0
7594,169.981,22.003,0.0
7627,170.002,22.053,0.0
7660,170.092,22.092,0.0
7694,170.267,22.237,0.0
7727,170.384,22.357,0.0
7760,170.379,22.367,0.0
7794,170.252,22.268,0.0
7827,170.363,22.318,0.0
7860,170.525,22.461,0.0
7893,170.711,22.635,0.0
7927,170.982,22.875,0.0
7960,171.179,23.056,0.0
7993,171.325,23.237,0.0
8027,171.446,23.384,0.0
8060,171.513,23.504,0.0
8093,171.618,23.598,0.0
8127,171.664,23.682,0.0
8160,171.676,23.756,0.0
8193,171.766,23.869,0.0
8227,171.825,23.961,0.0
8260,171.877,24.047,0.0
8293,172.015,24.195,0.0
8325,172.099,24.321,0.0
8360,172.195,24.447,0.0
8393,172.148,24.501,0.0
8426,171.205,23.876,0.0
8460,169.738,22.539,0.0
8493,169.007,21.639,0.0
8526,169.261,21.569,0.0
8560,169.934,21.981,0.0
8593,170.42,22.364,0.0
8626,170.606,22.555,0.0
8659,170.769,22.693,0.0
8693,170.967,22.871,0.0
8726,170.936,22.901,0.0
8759,170.818,22.828,0.0
8793,170.713,22.705,0.0
8825,170.752,22.708,0.0
8859,170.965,22.853,0.0
8893,171.202,23.045,0.0
8926,171.43,23.254,0.0
8959,171.596,23.437,0.0
8993,171.717,23.574,0.0
9026,171.804,23.699,0.0
9059,171.866,23.784,0.0
9092,171.92,23.88,0.0
9126,171.951,23.944,0.0
9159,171.975,23.986,0.0
9192,172.037,24.061,0.0
9226,172.087,24.148,0.0
9259,172.184,24.246,0.0
9292,172.168,24.31,0.0
9325,171.188,23.668,0.0
9359,169.741,22.337,0.0
9392,169.085,21.469,0.0
9426,169.336,21.414,0.0
9459,170.043,21.832,0.0
9492,170.387,22.138,0.0
9525,170.494,22.257,0.0
9559,170.569,22.298,0.0
9592,170.727,22.465,0.0
9625,170.719,22.524,0.0
9659,170.677,22.517,0.0
9692,170.612,22.427,0.0
9725,170.691,22.455,0.0
9759,170.868,22.593,0.0
9792,171.064,22.781,0.0
9825,171.305,23.014,0.0
9859,171.464,23.189,0.0
9892,171.61,23.367,0.0
9925,171.679,23.487,0.0
9958,171.763,23.57,0.0
9992,171.879,23.705,0.0
10025,171.952,23.779,0.0
10058,172.029,23.872,0.0
10092,172.119,23.97,0.0
10125,172.194,24.057,0.0
10158,172.362,24.197,0.0
10192,172.272,24.239,0.0
10225,171.466,23.718,0.0
10258,169.941,22.416,0.0
10292,168.79,21.26,0.0
10325,168.956,21.114,0.0
10358,169.547,21.409,0.0
10391,169.933,21.689,0.0
10425,170.059,21.812,0.0
10458,170.109,21.812,0.0
10491,170.296,21.952,0.0
10525,170.46,22.129,0.0
10558,170.531,22.237,0.0
10591,170.511,22.258,0.0
10625,170.566,22.297,0.0
10658,170.682,22.371,0.0
10691,170.94,22.582,0.0
10724,171.224,22.832,0.0
10758,171.376,23.026,0.0
10791,171.469,23.175,0.0
10824,171.577,23.319,0.0
10858,171.665,23.45,0.0
10891,171.772,23.57,0.0
10924,171.928,23.717,0.0
10958,171.989,23.829,0.0
10991,172.032,23.935,0.0
11024,172.122,24.026,0.0
11058,172.3,24.193,0.0
11091,172.437,24.358,0.0
11124,172.528,24.484,0.0
11157,172.663,24.648,0.0
11191,172.803,24.78,0.0
11224,172.922,24.95,0.0
11257,172.775,24.945,0.0
11291,171.462,24.01,0.0
11324,169.866,22.538,0.0
11357,169.292,21.738,0.0
11391,169.717,21.811,0.0
11424,170.287,22.195,0.0
11457,170.688,22.481,0.0
11491,170.718,22.543,0.0
11524,170.697,22.508,0.0
11556,170.819,22.639,0.0
11590,170.974,22.82,0.0
11624,170.996,22.881,0.0
11657,170.999,22.896,0.0
11690,171.028,22.914,0.0
11724,171.146,23.027,0.0
11757,171.281,23.178,0.0
11790,171.431,23.348,0.0
11824,171.605,23.528,0.0
11857,171.722,23.691,0.0
11890,171.828,23.846,0.0
11924,171.948,23.986,0.0
11957,172.059,24.124,0.0
11990,172.127,24.222,0.0
12023,172.25,24.347,0.0
12056,172.378,24.489,0.0
12090,172.529,24.652,0.0
12123,172.644,24.791,0.0
12157,172.807,24.952,0.0
12190,172.965,25.112,0.0
12223,173.103,25.286,0.0
12257,173.234,25.433,0.0
12290,173.232,25.54,0.0
12323,172.405,25.033,0.0
12357,170.809,23.665,0.0
12390,169.822,22.558,0.0
12423,169.91,22.326,0.0
12456,170.601,22.728,0.0
12490,171.029,23.089,0.0
12523,171.239,23.258,0.0
12556,171.289,23.313,0.0
12590,171.444,23.437,0.0
12623,171.534,23.579,0.0
12656,171.538,23.614,0.0
12690,171.419,23.559,0.0
12723,171.408,23.532,0.0
12756,171.566,23.645,0.0
12790,171.758,23.83,0.0
12823,171.983,24.037,0.0
12856,172.144,24.235,0.0
12889,172.232,24.375,0.0
12923,172.342,24.512,0.0
12956,172.478,24.669,0.0
12989,172.619,24.798,0.0
13023,172.654,24.886,0.0
13056,172.77,25.01,0.0
13089,172.865,25.142,0.0
13123,172.959,25.278,0.0
13156,173.026,25.369,0.0
13189,173.224,25.529,0.0
13222,173.451,25.761,0.0
13256,173.38,25.851,0.0
13289,172.285,25.113,0.0
13322,170.737,23.71,0.0
13356,169.924,22.754,0.0
13389,170.286,22.775,0.0
13422,171.024,23.226,0.0
13456,171.466,23.583,0.0
13489,171.537,23.7,0.0
13522,171.666,23.814,0.0
13556,171.788,23.967,0.0
13589,171.706,24.004,0.0
13622,171.49,23.835,0.0
13655,171.353,23.716,0.0
13689,171.338,23.701,0.0
13722,171.441,23.783,0.0
13755,171.65,23.982,0.0
13789,171.874,24.188,0.0
13822,172.044,24.364,0.0
13855,172.167,24.518,0.0
13889,172.282,24.644,0.0
13922,172.372,24.759,0.0
13955,172.382,24.818,0.0
13989,172.4,24.873,0.0
14022,172.489,24.983,0.0
14055,172.603,25.132,0.0
14088,171.906,24.702,0.0
14122,170.318,23.36,0.0
14155,169.373,22.33,0.0
14188,169.437,22.073,0.0
14222,170.008,22.369,0.0
14255,170.383,22.668,0.0
14287,170.525,22.807,0.0
14322,170.542,22.802,0.0
14355,170.667,22.92,0.0
14388,170.789,23.062,0.0
14422,170.824,23.125,0.0
14455,170.725,23.04,0.0
14488,170.734,23.017,0.0
14521,170.882,23.137,0.0
14555,171.157,23.346,0.0
14588,171.369,23.564,0.0
14621,171.553,23.764,0.0
14655,171.762,23.966,0.0
14688,171.816,24.097,0.0
14721,171.891,24.172,0.0
14755,172.003,24.292,0.0
14787,172.112,24.417,0.0
14821,172.182,24.53,0.0
14854,171.836,24.373,0.0
14888,170.382,23.275,0.0
14921,169.019,21.962,0.0
14954,168.598,21.336,0.0
14988,169.084,21.508,0.0
15021,169.487,21.744,0.0
15054,169.626,21.837,0.0
15088,169.637,21.79,0.0
15121,169.799,21.916,0.0
15154,170.061,22.144,0.0
15188,170.174,22.314,0.0
15221,170.122,22.312,0.0
15254,170.122,22.298,0.0
15287,170.227,22.365,0.0
15321,170.421,22.531,0.0
15354,170.695,22.776,0.0
15387,170.924,23.029,0.0
15421,171.066,23.198,0.0
15454,171.167,23.32,0.0
15487,171.24,23.458,0.0
15521,171.376,23.586,0.0
15554,171.496,23.718,0.0
15587,171.557,23.837,0.0
15621,171.614,23.925,0.0
15654,171.774,24.059,0.0
15687,171.874,24.199,0.0
15720,171.973,24.319,0.0
15754,172.076,24.464,0.0
15787,171.548,24.237,0.0
15820,169.902,22.93,0.0
15854,168.582,21.639,0.0
15887,168.423,21.228,0.0
15920,168.982,21.492,0.0
15954,169.312,21.722,0.0
15987,169.312,21.707,0.0
16020,169.189,21.594,0.0
16054,169.448,21.745,0.0
16087,169.837,22.061,0.0
16120,170.058,22.299,0.0
16153,169.994,22.318,0.0
16187,169.958,22.31,0.0
16220,169.998,22.356,0.0
16253,170.247,22.572,0.0
16287,170.454,22.784,0.0
16320,170.611,22.977,0.0
16353,170.841,23.194,0.0
16387,171.022,23.4,0.0
16420,171.144,23.524,0.0
16453,171.283,23.689,0.0
16487,171.415,23.831,0.0
16520,171.476,23.953,0.0
16553,171.561,24.088,0.0
16586,171.654,24.217,0.0
16620,171.759,24.359,0.0
16653,171.876,24.509,0.0
16686,172.016,24.656,0.0
16720,172.164,24.82,0.0
16753,172.281,24.974,0.0
16786,172.285,25.074,0.0
16820,171.452,24.576,0.0
16853,169.787,23.156,0.0
16886,168.781,22.07,0.0
16919,168.87,21.901,0.0
16953,169.531,22.272,0.0
16986,169.86,22.51,0.0
17018,169.699,22.44,0.0
17053,169.642,22.385,0.0
17086,169.991,22.625,0.0
17119,170.213,22.873,0.0
17153,170.231,22.96,0.0
17186,170.163,22.925,0.0
17219,170.107,22.919,0.0
17253,170.227,23.027,0.0
17286,170.422,23.215,0.0
17319,170.586,23.402,0.0
17352,170.742,23.616,0.0
17386,170.865,23.762,0.0
17419,170.994,23.926,0.0
17452,171.083,24.062,0.0
17486,171.219,24.216,0.0
17518,171.384,24.393,0.0
17552,171.499,24.535,0.0
17586,171.608,24.665,0.0
17619,171.757,24.836,0.0
17652,171.829,24.969,0.0
17686,171.89,25.1,0.0
17719,171.995,25.222,0.0
17752,172.227,25.442,0.0
17785,172.337,25.606,0.0
17819,171.854,25.397,0.0
17852,170.299,24.169,0.0
17885,168.873,22.8,0.0
17919,168.751,22.43,0.0
17952,169.399,22.752,0.0
17985,169.826,23.082,0.0
18018,169.789,23.129,0.0
18052,169.731,23.086,0.0
18085,169.943,23.25,0.0
18119,170.139,23.474,0.0
18152,170.132,23.518,0.0
18185,170.118,23.525,0.0
18218,170.084,23.517,0.0
18252,170.182,23.621,0.0
18285,170.419,23.821,0.0
18318,170.623,24.03,0.0
18352,170.788,24.225,0.0
18385,170.928,24.389,0.0
18418,171.001,24.521,0.0
18452,171.066,24.65,0.0
18485,171.14,24.751,0.0
18518,171.191,24.855,0.0
18552,171.223,24.942,0.0
18585,171.345,25.07,0.0
18618,171.394,25.177,0.0
18651,171.55,25.302,0.0
18685,171.7,25.483,0.0
18718,171.766,25.628,0.0
18751,171.002,25.186,0.0
18785,169.37,23.798,0.0
18818,168.226,22.602,0.0
18851,168.46,22.459,0.0
18885,169.076,22.789,0.0
18918,169.44,23.062,0.0
18950,169.586,23.171,0.0
18985,169.654,23.19,0.0
19018,169.868,23.368,0.0
19051,169.888,23.438,0.0
19084,169.744,23.376,0.0
19118,169.636,23.259,0.0
19151,169.705,23.26,0.0
19184,169.891,23.401,0.0
19218,170.121,23.597,0.0
19251,170.4,23.852,0.0
19284,170.555,24.036,0.0
19318,170.692,24.164,0.0
19351,170.807,24.293,0.0
19384,170.906,24.384,0.0
19417,170.995,24.456,0.0
19450,171.05,24.546,0.0
19484,171.167,24.638,0.0
19517,171.278,24.771,0.0
19551,170.751,24.496,0.0
19584,169.277,23.253,0.0
19617,168.067,22.013,0.0
19651,167.932,21.602,0.0
19684,168.49,21.845,0.0
19717,168.912,22.141,0.0
19751,168.954,22.166,0.0
19784,169.013,22.143,0.0
19817,169.291,22.344,0.0
19850,169.504,22.568,0.0
19884,169.523,22.637,0.0
19917,169.514,22.624,0.0
19950,169.463,22.577,0.0
19984,169.581,22.668,0.0
20017,169.825,22.865,0.0
20050,170.028,23.066,0.0
20084,170.284,23.287,0.0
20117,170.526,23.508,0.0
20150,170.707,23.702,0.0
20184,170.822,23.824,0.0
20217,170.954,23.93,0.0
20250,171.079,24.037,0.0
20283,171.143,24.119,0.0
20317,171.303,24.271,0.0
20350,171.338,24.367,0.0
20383,170.396,23.749,0.0
20417,168.674,22.238,0.0
20450,167.637,21.085,0.0
20483,168.011,21.072,0.0
20517,168.65,21.432,0.0
20550,168.806,21.567,0.0
20583,168.814,21.55,0.0
20617,168.857,21.541,0.0
20650,169.125,21.771,0.0
20683,169.429,22.036,0.0
20716,169.553,22.171,0.0
20750,169.532,22.172,0.0
20783,169.528,22.158,0.0
20816,169.687,22.274,0.0
20850,169.911,22.484,0.0
20883,170.228,22.76,0.0
20916,170.375,22.951,0.0
20950,170.556,23.148,0.0
20983,170.786,23.361,0.0
21016,170.873,23.481,0.0
21050,170.971,23.589,0.0
21083,171.06,23.694,0.0
21116,171.148,23.817,0.0
21149,171.264,23.957,0.0
21183,171.363,24.084,0.0
21216,171.489,24.224,0.0
21249,171.621,24.366,0.0
21283,171.797,24.543,0.0
21316,172.033,24.758,0.0
21349,171.856,24.775,0.0
21383,170.38,23.71,0.0
21416,168.709,22.052,0.0
21449,168.051,21.175,0.0
21482,168.41,21.222,0.0
21516,168.992,21.603,0.0
21549,169.119,21.732,0.0
21582,169.07,21.669,0.0
21616,169.175,21.726,0.0
21649,169.515,22.009,0.0
21681,169.722,22.236,0.0
21716,169.813,22.362,0.0
21749,169.799,22.354,0.0
21782,169.812,22.384,0.0
21816,170.033,22.523,0.0
21849,170.327,22.797,0.0
21882,170.522,23.018,0.0
21915,170.743,23.258,0.0
21949,170.966,23.48,0.0
21982,171.136,23.665,0.0
22015,171.284,23.828,0.0
22049,171.403,23.958,0.0
22082,171.527,24.098,0.0
22115,171.654,24.252,0.0
22149,171.804,24.414,0.0
22181,171.892,24.55,0.0
22215,172.073,24.718,0.0
22249,172.238,24.89,0.0
22282,172.419,25.078,0.0
22315,172.523,25.234,0.0
22348,172.109,25.083,0.0
22382,170.442,23.736,0.0
22415,169.005,22.257,0.0
22448,168.776,21.721,0.0
22482,169.323,22.009,0.0
22515,169.884,22.435,0.0
22548,170.097,22.608,0.0
22582,170.093,22.605,0.0
22615,170.243,22.747,0.0
22648,170.463,22.98,0.0
22681,170.578,23.139,0.0
22715,170.659,23.231,0.0
22748,170.628,23.208,0.0
22781,170.761,23.314,0.0
22815,170.928,23.502,0.0
22848,171.156,23.73,0.0
22881,171.391,23.963,0.0
22915,171.565,24.194,0.0
22948,171.707,24.379,0.0
22981,171.823,24.536,0.0
23015,171.895,24.665,0.0
23048,171.972,24.798,0.0
23081,172.056,24.927,0.0
23114,172.109,25.014,0.0
23148,172.223,25.144,0.0
23181,172.384,25.318,0.0
23214,172.503,25.478,0.0
23248,172.707,25.684,0.0
23281,172.817,25.875,0.0
23314,171.97,25.344,0.0
23348,170.25,23.788,0.0
23381,169.368,22.709,0.0
23414,169.55,22.607,0.0
23448,170.263,23.082,0.0
23481,170.659,23.455,0.0
23514,170.79,23.604,0.0
23547,170.874,23.71,0.0
23581,171.019,23.905,0.0
23614,171.022,23.99,0.0
23647,170.845,23.896,0.0
23681,170.703,23.78,0.0
23714,170.777,23.813,0.0
23747,170.966,23.975,0.0
23781,171.198,24.22,0.0
23814,171.362,24.42,0.0
23847,171.507,24.606,0.0
23881,171.575,24.744,0.0
23914,171.593,24.821,0.0
23947,171.658,24.912,0.0
23980,171.739,25.005,0.0
24014,171.838,25.113,0.0
24047,171.94,25.251,0.0
24080,172.111,25.409,0.0
24114,172.203,25.561,0.0
24147,171.652,25.256,0.0
24180,170.069,23.886,0.0
24214,168.962,22.648,0.0
24247,168.978,22.375,0.0
24280,169.597,22.727,0.0
24314,169.975,23.021,0.0
24347,170.148,23.199,0.0
24380,170.122,23.204,0.0
24412,170.348,23.415,0.0
24447,170.53,23.618,0.0
24480,170.45,23.629,0.0
24513,170.283,23.528,0.0
24547,170.255,23.476,0.0
24580,170.466,23.643,0.0
24613,170.797,23.914,0.0
24647,171.111,24.227,0.0
24680,171.327,24.455,0.0
24713,171.463,24.639,0.0
24747,171.585,24.793,0.0
24780,171.644,24.907,0.0
24813,171.73,24.999,0.0
24846,171.878,25.133,0.0
24880,172.015,25.281,0.0
24912,172.046,25.393,0.0
24946,171.098,24.746,0.0
24980,169.411,23.22,0.0
25013,168.607,22.206,0.0
25046,168.867,22.145,0.0
25080,169.453,22.476,0.0
25113,169.712,22.68,0.0
25146,169.679,22.651,0.0
25179,169.728,22.663,0.0
25213,170.086,22.951,0.0
25246,170.331,23.208,0.0
25279,170.437,23.335,0.0
25313,170.401,23.313,0.0
25346,170.396,23.329,0.0
25379,170.599,23.484,0.0
25412,170.82,23.693,0.0
25446,171.104,23.955,0.0
25479,171.313,24.174,0.0
25513,171.441,24.354,0.0
25546,171.523,24.499,0.0
25579,171.7,24.653,0.0
25612,171.812,24.786,0.0
25646,171.901,24.911,0.0
25679,171.979,25.036,0.0
25712,172.066,25.137,0.0
25746,172.222,25.294,0.0
25779,172.374,25.448,0.0
25812,172.55,25.639,0.0
25846,172.297,25.588,0.0
25879,170.815,24.416,0.0
25912,169.219,22.83,0.0
25946,168.879,22.164,0.0
25979,169.373,22.347,0.0
26012,169.921,22.693,0.0
26045,170.011,22.776,0.0
26079,169.91,22.679,0.0
26112,170.114,22.798,0.0
26145,170.472,23.127,0.0
26179,170.641,23.338,0.0
26212,170.775,23.458,0.0
26245,170.755,23.464,0.0
26279,170.779,23.497,0.0
26312,170.966,23.663,0.0
26345,171.193,23.897,0.0
26379,171.449,24.151,0.0
26412,171.638,24.363,0.0
26445,171.827,24.546,0.0
26478,172.002,24.743,0.0
26512,172.145,24.915,0.0
26545,172.253,25.052,0.0
26578,172.375,25.199,0.0
26612,172.508,25.363,0.0
26645,172.594,25.51,0.0
26678,172.745,25.666,0.0
26712,172.828,25.805,0.0
26745,172.934,25.962,0.0
26778,173.067,26.12,0.0
26812,173.22,26.296,0.0
26845,173.183,26.383,0.0
26878,172.024,25.597,0.0
26911,170.211,23.893,0.0
26945,169.526,22.949,0.0
26978,169.844,22.941,0.0
27011,170.463,23.375,0.0
27045,170.74,23.598,0.0
27078,170.721,23.551,0.0
27111,170.744,23.555,0.0
27145,171.0,23.803,0.0
27178,171.219,24.041,0.0
27211,171.23,24.105,0.0
27244,171.116,24.056,0.0
27278,171.148,24.081,0.0
27311,171.264,24.228,0.0
27344,171.517,24.443,0.0
27378,171.759,24.707,0.0
27411,171.881,24.895,0.0
27444,172.005,25.056,0.0
27478,172.135,25.21,0.0
27511,172.279,25.375,0.0
27544,172.381,25.522,0.0
27578,172.45,25.634,0.0
27611,172.498,25.742,0.0
27643,172.661,25.876,0.0
27677,172.8,26.06,0.0
27711,172.992,26.257,0.0
27744,173.131,26.464,0.0
27777,173.02,26.512,0.0
27811,171.793,25.598,0.0
27844,170.115,24.023,0.0
27877,169.577,23.234,0.0
27911,170.068,23.37,0.0
27944,170.677,23.818,0.0
27977,170.889,24.031,0.0
28011,170.879,24.041,0.0
28044,171.048,24.196,0.0
28077,171.211,24.39,0.0
28110,171.166,24.415,0.0
28143,170.988,24.304,0.0
28177,170.927,24.247,0.0
28210,171.048,24.342,0.0
28244,171.225,24.53,0.0
28277,171.461,24.768,0.0
28310,171.669,24.994,0.0
28344,171.819,25.175,0.0
28377,171.892,25.314,0.0
28410,171.939,25.412,0.0
28444,171.967,25.486,0.0
28477,172.08,25.587,0.0
28510,172.122,25.672,0.0
28543,172.224,25.786,0.0
28577,172.338,25.923,0.0
28610,172.339,26.009,0.0
28643,171.202,25.194,0.0
28677,169.601,23.699,0.0
28710,169.023,22.866,0.0
28743,169.388,22.936,0.0
28777,169.904,23.283,0.0
28810,170.114,23.474,0.0
28843,170.092,23.458,0.0
28877,170.25,23.571,0.0
28910,170.52,23.829,0.0
28943,170.543,23.92,0.0
28976,170.391,23.826,0.0
29010,170.331,23.76,0.0
29043,170.438,23.833,0.0
29075,170.629,24.018,0.0
29110,170.905,24.245,0.0
29143,171.088,24.456,0.0
29176,171.273,24.651,0.0
29210,171.305,24.767,0.0
29243,171.418,24.879,0.0
29276,171.503,24.985,0.0
29310,171.589,25.067,0.0
29343,171.682,25.189,0.0
29376,171.829,25.332,0.0
29409,171.695,25.343,0.0
29443,170.346,24.276,0.0
29476,168.809,22.793,0.0
29509,168.391,22.101,0.0
29543,168.803,22.211,0.0
29575,169.176,22.442,0.0
29609,169.243,22.476,0.0
29643,169.112,22.352,0.0
29676,169.381,22.483,0.0
29709,169.716,22.78,0.0
29742,169.864,22.984,0.0
29776,169.773,22.953,0.0
29809,169.707,22.906,0.0
29842,169.784,22.96,0.0
29876,169.986,23.112,0.0
29909,170.205,23.323,0.0
29942,170.427,23.554,0.0
29976,170.568,23.741,0.0
30009,170.669,23.853,0.0
30042,170.789,23.995,0.0
30075,170.906,24.123,0.0
30109,171.032,24.248,0.0
30142,171.092,24.338,0.0
30175,171.241,24.463,0.0
30209,171.312,24.598,0.0
30242,171.429,24.697,0.0
30275,171.617,24.891,0.0
30309,171.337,24.811,0.0
30342,169.753,23.555,0.0
30375,168.29,22.087,0.0
30409,167.949,21.498,0.0
30442,168.477,21.718,0.0
30475,168.816,21.917,0.0
30509,168.773,21.883,0.0
30542,168.644,21.738,0.0
30575,168.983,21.932,0.0
30608,169.331,22.254,0.0
30642,169.543,22.484,0.0
30675,169.533,22.539,0.0
30708,169.496,22.514,0.0
30742,169.605,22.584,0.0
30775,169.809,22.764,0.0
30808,170.067,23.004,0.0
30842,170.316,23.248,0.0
30875,170.557,23.483,0.0
30908,170.682,23.643,0.0
30942,170.828,23.817,0.0
30975,170.929,23.937,0.0
31008,171.034,24.067,0.0
31041,171.162,24.209,0.0
31075,171.317,24.371,0.0
31108,171.441,24.515,0.0
31141,171.533,24.65,0.0
31175,171.683,24.817,0.0
31208,171.81,24.972,0.0
31241,171.903,25.104,0.0
31275,172.069,25.272,0.0
31308,172.296,25.48,0.0
31341,172.267,25.542,0.0
31374,171.122,24.755,0.0
31408,169.294,23.075,0.0
31441,168.479,22.05,0.0
31474,168.817,22.065,0.0
31508,169.417,22.439,0.0
31541,169.629,22.609,0.0
31574,169.517,22.553,0.0
31608,169.588,22.563,0.0
31641,169.942,22.855,0.0
31674,170.175,23.111,0.0
31708,170.295,23.263,0.0
31741,170.205,23.228,0.0
31774,170.201,23.243,0.0
31806,170.395,23.39,0.0
31841,170.62,23.608,0.0
31874,170.917,23.889,0.0
31907,171.094,24.11,0.0
31941,171.264,24.32,0.0
31974,171.365,24.449,0.0
32007,171.484,24.61,0.0
32041,171.566,24.727,0.0
32074,171.679,24.879,0.0
32107,171.846,25.024,0.0
32141,171.976,25.184,0.0
32174,172.075,25.348,0.0
32207,172.213,25.503,0.0
32240,172.363,25.66,0.0
32274,172.454,25.812,0.0
32306,172.572,25.957,0.0
32340,172.698,26.12,0.0
32374,172.576,26.159,0.0
32407,171.168,25.125,0.0
32440,169.488,23.509,0.0
32474,168.992,22.743,0.0
32507,169.455,22.882,0.0
32540,170.092,23.331,0.0
32574,170.32,23.571,0.0
32607,170.321,23.546,0.0
32640,170.411,23.643,0.0
32673,170.691,23.895,0.0
32707,170.653,23.968,0.0
32740,170.491,23.88,0.0
32773,170.504,23.878,0.0
32806,170.531,23.935,0.0
32840,170.68,24.084,0.0
32873,170.908,24.318,0.0
32907,171.066,24.513,0.0
32940,171.249,24.716,0.0
32973,171.342,24.853,0.0
33007,171.4,24.971,0.0
33040,171.459,25.086,0.0
33073,171.524,25.18,0.0
33106,171.572,25.279,0.0
33140,171.631,25.366,0.0
33173,171.761,25.497,0.0
33206,171.789,25.573,0.0
33240,171.933,25.723,0.0
33273,172.052,25.876,0.0
33306,171.925,25.901,0.0
33340,170.63,24.954,0.0
33373,169.069,23.439,0.0
33406,168.594,22.696,0.0
33440,169.044,22.787,0.0
33473,169.67,23.219,0.0
33506,169.913,23.44,0.0
33539,169.915,23.445,0.0
33573,170.029,23.549,0.0
33606,170.233,23.75,0.0
33639,170.258,23.83,0.0
33673,170.22,23.8,0.0
33706,170.176,23.771,0.0
33739,170.246,23.807,0.0
33773,170.525,24.01,0.0
33806,170.765,24.277,0.0
33839,170.951,24.489,0.0
33872,171.121,24.67,0.0
33906,171.227,24.83,0.0
33939,171.339,24.973,0.0
33972,171.44,25.106,0.0
34006,171.492,25.201,0.0
34039,171.51,25.276,0.0
34072,171.565,25.36,0.0
34106,171.667,25.487,0.0
34139,171.835,25.642,0.0
34172,172.042,25.851,0.0
34206,171.937,25.915,0.0
34239,170.631,25.02,0.0
34272,168.865,23.367,0.0
34305,167.963,22.288,0.0
34339,168.404,22.323,0.0
34372,168.997,22.694,0.0
34405,169.202,22.857,0.0
34439,169.212,22.836,0.0
34472,169.268,22.829,0.0
34505,169.54,23.07,0.0
34539,169.801,23.337,0.0
34572,169.899,23.456,0.0
34605,169.895,23.462,0.0
34639,169.827,23.433,0.0
34672,169.992,23.533,0.0
34705,170.22,23.761,0.0
34738,170.464,23.997,0.0
34772,170.682,24.244,0.0
34805,170.806,24.411,0.0
34838,170.966,24.595,0.0
34872,171.096,24.752,0.0
34905,171.191,24.887,0.0
34938,171.299,25.021,0.0
34972,171.393,25.141,0.0
35005,171.481,25.272,0.0
35037,171.593,25.418,0.0
35072,171.714,25.552,0.0
35105,171.804,25.685,0.0
35138,171.882,25.833,0.0
35171,171.995,25.971,0.0
35205,171.653,25.881,0.0
35238,170.055,24.648,0.0
35271,168.312,22.936,0.0
35305,168.077,22.335,0.0
35338,168.61,22.489,0.0
35371,169.202,22.87,0.0
35405,169.43,23.034,0.0
35438,169.342,22.973,0.0
35471,169.453,22.994,0.0
35505,169.77,23.243,0.0
35537,169.971,23.465,0.0
35571,169.955,23.499,0.0
35604,169.87,23.448,0.0
35638,169.868,23.45,0.0
35671,170.055,23.603,0.0
35704,170.314,23.839,0.0
35738,170.573,24.1,0.0
35771,170.787,24.312,0.0
35804,170.947,24.514,0.0
35838,171.076,24.674,0.0
35871,171.252,24.851,0.0
35904,171.374,24.993,0.0
35937,171.492,25.146,0.0
35971,171.601,25.292,0.0
36004,171.689,25.422,0.0
36037,171.815,25.592,0.0
36071,171.88,25.701,0.0
36104,172.09,25.898,0.0
36137,172.24,26.087,0.0
36171,172.388,26.259,0.0
36204,172.354,26.361,0.0
36237,171.484,25.834,0.0
36271,169.654,24.24,0.0
36304,168.529,22.946,0.0
36337,168.602,22.701,0.0
36370,169.274,23.077,0.0
36404,169.735,23.42,0.0
36437,169.903,23.598,0.0
36470,169.887,23.556,0.0
36504,170.094,23.737,0.0
36537,170.361,23.955,0.0
36570,170.418,24.078,0.0
36604,170.353,24.036,0.0
36637,170.408,24.048,0.0
36670,170.585,24.201,0.0
36704,170.771,24.411,0.0
36737,171.016,24.647,0.0
36770,171.196,24.883,0.0
36803,171.34,25.058,0.0
36837,171.451,25.224,0.0
36870,171.573,25.376,0.0
36903,171.675,25.535,0.0
36937,171.79,25.654,0.0
36970,171.892,25.791,0.0
37003,171.956,25.9,0.0
37037,172.064,26.05,0.0
37070,172.191,26.199,0.0
37103,172.347,26.395,0.0
37137,172.447,26.572,0.0
37170,171.553,26.03,0.0
37203,169.849,24.491,0.0
37236,169.039,23.471,0.0
37270,169.213,23.321,0.0
37303,169.873,23.728,0.0
37336,170.344,24.133,0.0
37370,170.425,24.217,0.0
37403,170.476,24.255,0.0
37436,170.626,24.431,0.0
37470,170.624,24.502,0.0
37503,170.423,24.377,0.0
37536,170.348,24.288,0.0
37569,170.399,24.31,0.0
37603,170.611,24.488,0.0
37636,170.913,24.755,0.0
37669,171.069,24.972,0.0
37703,171.202,25.14,0.0
37736,171.404,25.347,0.0
37768,171.467,25.478,0.0
37803,171.554,25.595,0.0
37836,171.625,25.685,0.0
37869,171.627,25.742,0.0
37903,171.739,25.876,0.0
37936,171.848,26.036,0.0
37969,171.105,25.604,0.0
38002,169.44,24.175,0.0
38036,168.439,23.02,0.0
38069,168.505,22.768,0.0
38102,169.079,23.063,0.0
38136,169.425,23.322,0.0
38169,169.497,23.414,0.0
38202,169.544,23.427,0.0
38236,169.791,23.606,0.0
38268,169.98,23.799,0.0
38302,169.958,23.846,0.0
38336,169.841,23.773,0.0
38369,169.834,23.752,0.0
38402,169.983,23.873,0.0
38435,170.249,24.1,0.0
38469,170.518,24.374,0.0
38502,170.665,24.568,0.0
38535,170.84,24.743,0.0
38569,170.97,24.924,0.0
38602,171.018,25.016,0.0
38635,171.07,25.098,0.0
38669,171.134,25.197,0.0
38702,171.217,25.304,0.0
38735,171.304,25.435,0.0
38768,170.868,25.249,0.0
38802,169.246,23.988,0.0
38835,167.636,22.447,0.0
38868,167.569,22.08,0.0
38902,168.098,22.296,0.0
38935,168.544,22.574,0.0
38968,168.638,22.625,0.0
39002,168.553,22.529,0.0
39035,168.746,22.661,0.0
39068,169.1,22.938,0.0
39102,169.231,23.121,0.0
39135,169.178,23.115,0.0
39168,169.145,23.096,0.0
39202,169.216,23.161,0.0
39235,169.403,23.331,0.0
39268,169.635,23.562,0.0
39301,169.766,23.74,0.0
39335,169.861,23.889,0.0
39368,170.087,24.105,0.0
39401,170.188,24.274,0.0
39435,170.279,24.388,0.0
39468,170.432,24.532,0.0
39501,170.586,24.699,0.0
39535,170.633,24.806,0.0
39568,170.719,24.913,0.0
39601,170.897,25.093,0.0
39635,171.114,25.3,0.0
39668,171.209,25.463,0.0
39700,170.755,25.273,0.0
39734,169.037,23.904,0.0
39768,167.667,22.496,0.0
39801,167.508,22.06,0.0
39834,168.078,22.319,0.0
39868,168.542,22.66,0.0
39901,168.48,22.62,0.0
39934,168.406,22.53,0.0
39968,168.648,22.701,0.0
40001,168.969,22.967,0.0
40034,169.143,23.169,0.0
40067,169.065,23.167,0.0
40101,168.953,23.094,0.0
40134,169.016,23.148,0.0
40200,169.487,23.601,0.0
40234,169.742,23.865,0.0
40267,169.903,24.051,0.0
40301,170.081,24.237,0.0
40334,170.22,24.411,0.0
40367,170.321,24.545,0.0
40401,170.421,24.66,0.0
40434,170.494,24.779,0.0
40467,170.587,24.901,0.0
40500,170.654,25.027,0.0
40534,170.779,25.163,0.0
40567,170.904,25.336,0.0
40600,170.906,25.43,0.0
40634,169.872,24.768,0.0
40667,168.223,23.319,0.0
40700,167.263,22.302,0.0
40734,167.703,22.395,0.0
40767,168.342,22.796,0.0
40800,168.656,23.019,0.0
40834,168.655,23.019,0.0
40867,168.782,23.109,0.0
40933,169.06,23.437,0.0
40967,168.968,23.406,0.0
41000,168.866,23.339,0.0
41033,168.9,23.361,0.0
41067,169.048,23.497,0.0
41100,169.245,23.69,0.0
41133,169.435,23.903,0.0
41167,169.492,24.036,0.0
41200,169.567,24.157,0.0
41233,169.639,24.252,0.0
41267,169.797,24.399,0.0
41300,169.891,24.521,0.0
41333,169.934,24.603,0.0
41366,170.114,24.752,0.0
41400,170.244,24.918,0.0
41433,169.998,24.856,0.0
41466,168.447,23.718,0.0
41500,167.185,22.464,0.0
41533,166.813,21.914,0.0
41566,167.333,22.123,0.0
41600,167.808,22.439,0.0
41633,167.858,22.485,0.0
41666,167.879,22.47,0.0
41699,168.134,22.67,0.0
41733,168.363,22.904,0.0
41766,168.325,22.955,0.0
41799,168.131,22.851,0.0
41833,168.068,22.784,0.0
41866,168.184,22.893,0.0
41899,168.42,23.098,0.0
41966,168.856,23.532,0.0
41999,169.059,23.748,0.0
42033,169.188,23.908,0.0
42066,169.254,24.019,0.0
42099,169.366,24.139,0.0
42133,169.448,24.253,0.0
42166,169.574,24.379,0.0
42199,169.673,24.51,0.0
42232,169.893,24.72,0.0
42266,169.649,24.672,0.0
42299,168.269,23.642,0.0
42366,166.256,21.572,0.0
42399,166.699,21.722,0.0
42431,167.165,21.992,0.0
42466,167.278,22.063,0.0
42499,167.117,21.937,0.0
42532,167.331,22.063,0.0
42565,167.751,22.409,0.0
42599,167.887,22.59,0.0
42632,167.874,22.637,0.0
42665,167.798,22.582,0.0
42699,167.93,22.668,0.0
42732,168.108,22.838,0.0
42765,168.352,23.069,0.0
42799,168.741,23.398,0.0
42832,168.851,23.567,0.0
42865,168.982,23.737,0.0
42899,169.088,23.882,0.0
42931,169.204,24.028,0.0
42965,169.312,24.158,0.0
42998,169.363,24.264,0.0
43032,169.515,24.43,0.0
43065,169.672,24.597,0.0
43098,169.859,24.788,0.0
43132,169.968,24.937,0.0
43165,170.094,25.085,0.0
43198,170.262,25.258,0.0
43232,170.401,25.408,0.0
43265,170.456,25.537,0.0
43298,169.42,24.907,0.0
43332,167.526,23.259,0.0
43365,166.426,22.058,0.0
43398,166.64,21.931,0.0
43431,167.309,22.267,0.0
43465,167.569,22.462,0.0
43498,167.475,22.371,0.0
43531,167.477,22.328,0.0
43565,167.813,22.583,0.0
43598,168.102,22.843,0.0
43665,168.152,22.952,0.0
43698,168.13,22.957,0.0
43731,168.272,23.073,0.0
43765,168.458,23.28,0.0
43798,168.759,23.554,0.0
43831,169.095,23.844,0.0
43864,169.241,24.013,0.0
43898,169.359,24.187,0.0
43931,169.488,24.336,0.0
43964,169.599,24.491,0.0
43998,169.706,24.63,0.0
44031,169.795,24.753,0.0
44064,169.922,24.896,0.0
44098,170.088,25.09,0.0
44131,170.223,25.22,0.0
44164,170.363,25.372,0.0
44197,170.493,25.533,0.0
44231,170.697,25.736,0.0
44264,170.817,25.917,0.0
44297,170.098,25.524,0.0
44364,167.085,22.748,0.0
44397,167.11,22.442,0.0
44431,167.805,22.837,0.0
44464,168.181,23.112,0.0
44497,168.237,23.166,0.0
44531,168.262,23.157,0.0
44564,168.509,23.34,0.0
44597,168.683,23.549,0.0
44630,168.652,23.584,0.0
44664,168.564,23.523,0.0
44697,168.56,23.538,0.0
44730,168.648,23.617,0.0
44764,168.88,23.819,0.0
44797,169.171,24.109,0.0
44830,169.388,24.329,0.0
44864,169.592,24.531,0.0
44897,169.741,24.71,0.0
44930,169.879,24.877,0.0
44964,169.99,25.013,0.0
44997,170.025,25.115,0.0
45030,170.114,25.213,0.0
45063,170.223,25.328,0.0
45097,170.273,25.43,0.0
45130,170.358,25.533,0.0
45162,170.489,25.69,0.0
45197,170.493,25.793,0.0
45230,169.459,25.146,0.0
45263,167.732,23.608,0.0
45297,166.784,22.522,0.0
45330,167.07,22.475,0.0
45363,167.69,22.829,0.0
45397,168.074,23.136,0.0
45430,168.026,23.147,0.0
45463,168.213,23.256,0.0
45496,168.442,23.482,0.0
45530,168.527,23.603,0.0
45563,168.39,23.511,0.0
45596,168.282,23.414,0.0
45630,168.317,23.444,0.0
45662,168.603,23.662,0.0
45696,168.914,23.923,0.0
45730,169.162,24.184,0.0
45763,169.265,24.351,0.0
45796,169.387,24.511,0.0
45830,169.529,24.665,0.0
45863,169.586,24.776,0.0
45896,169.713,24.891,0.0
45929,169.75,24.988,0.0
45963,169.82,25.064,0.0
45996,169.989,25.245,0.0
46029,169.705,25.17,0.0
46063,168.221,24.079,0.0
46096,166.636,22.543,0.0
46129,166.179,21.873,0.0
46162,166.681,22.035,0.0
46196,167.195,22.358,0.0
46229,167.3,22.443,0.0
46262,167.339,22.43,0.0
46296,167.429,22.493,0.0
46329,167.671,22.734,0.0
46362,167.787,22.853,0.0
46396,167.77,22.9,0.0
46429,167.685,22.831,0.0
46462,167.774,22.898,0.0
46496,167.993,23.075,0.0
46529,168.256,23.311,0.0
46562,168.605,23.606,0.0
46596,168.826,23.824,0.0
46629,168.96,23.989,0.0
46662,169.027,24.114,0.0
46695,169.164,24.261,0.0
46729,169.234,24.354,0.0
46762,169.333,24.49,0.0
46795,169.392,24.576,0.0
46829,169.463,24.681,0.0
46862,169.651,24.847,0.0
46895,169.848,25.041,0.0
46929,169.723,25.09,0.0
46962,168.298,24.096,0.0
46995,166.635,22.521,0.0
47029,165.84,21.575,0.0
47062,166.265,21.671,0.0
47095,166.824,21.999,0.0
47128,166.895,22.038,0.0
47162,166.798,21.934,0.0
47195,166.854,21.927,0.0
47228,167.239,22.245,0.0
47262,167.482,22.467,0.0
47295,167.452,22.487,0.0
47328,167.375,22.45,0.0
47362,167.396,22.46,0.0
47395,167.568,22.609,0.0
47428,167.791,22.826,0.0
47462,168.06,23.08,0.0
47495,168.259,23.276,0.0
47528,168.421,23.431,0.0
47561,168.591,23.597,0.0
47595,168.749,23.776,0.0
47628,168.808,23.884,0.0
47661,168.906,24.0,0.0
47695,169.044,24.155,0.0
47728,169.158,24.287,0.0
47761,169.289,24.44,0.0
47795,169.419,24.59,0.0
47828,169.531,24.725,0.0
47861,169.674,24.906,0.0
47893,169.931,25.122,0.0
47928,169.936,25.221,0.0
47961,168.842,24.54,0.0
47994,166.957,22.914,0.0
48028,166.074,21.868,0.0
48061,166.361,21.847,0.0
48094,166.98,22.212,0.0
48128,167.27,22.415,0.0
48161,167.165,22.323,0.0
48194,167.274,22.341,0.0
48228,167.608,22.623,0.0
48261,167.804,22.841,0.0
48294,167.84,22.918,0.0
48327,167.761,22.876,0.0
48361,167.717,22.86,0.0
48393,167.855,22.976,0.0
48427,168.118,23.203,0.0
48461,168.294,23.406,0.0
48494,168.44,23.59,0.0
48527,168.561,23.743,0.0
48561,168.736,23.898,0.0
48594,168.855,24.049,0.0
48627,168.883,24.164,0.0
48661,168.989,24.278,0.0
48694,169.091,24.397,0.0
48727,169.171,24.5,0.0
48760,169.271,24.635,0.0
48794,169.433,24.796,0.0
48827,169.666,25.03,0.0
48860,169.326,24.921,0.0
48893,167.755,23.694,0.0
48927,166.355,22.352,0.0
48960,166.232,21.982,0.0
48994,166.787,22.282,0.0
49027,167.222,22.59,0.0
49060,167.3,22.669,0.0
49094,167.359,22.687,0.0
49127,167.615,22.891,0.0
49160,167.79,23.061,0.0
49193,167.708,23.047,0.0
49227,167.52,22.918,0.0
49260,167.574,22.93,0.0
49293,167.8,23.118,0.0
49327,168.016,23.323,0.0
49360,168.321,23.598,0.0
49393,168.505,23.791,0.0
49427,168.587,23.924,0.0
49460,168.632,24.029,0.0
49493,168.716,24.125,0.0
49527,168.729,24.197,0.0
49560,168.778,24.266,0.0
49626,168.947,24.516,0.0
49660,168.336,24.211,0.0
49693,166.697,22.912,0.0
49726,165.369,21.631,0.0
49760,165.61,21.52,0.0
49793,166.174,21.821,0.0
49825,166.433,22.031,0.0
49860,166.428,22.019,0.0
49893,166.481,22.025,0.0
49926,166.773,22.248,0.0
49959,166.99,22.456,0.0
49993,167.035,22.524,0.0
50026,166.924,22.46,0.0
50059,166.989,22.49,0.0
50093,167.15,22.624,0.0
50126,167.307,22.773,0.0
50159,167.558,23.023,0.0
50193,167.777,23.234,0.0
50226,167.944,23.416,0.0
50259,168.085,23.566,0.0
50293,168.138,23.673,0.0
50325,168.158,23.735,0.0
50359,168.202,23.828,0.0
50392,168.342,23.936,0.0
50426,168.526,24.118,0.0
50459,168.725,24.321,0.0
50492,168.136,24.032,0.0
50526,166.46,22.661,0.0
50559,165.248,21.437,0.0
50592,165.239,21.173,0.0
50626,165.64,21.367,0.0
50659,165.799,21.453,0.0
50692,165.739,21.381,0.0
50726,165.767,21.33,0.0
50759,166.17,21.599,0.0
50792,166.469,21.881,0.0
50825,166.601,22.038,0.0
50859,166.564,22.022,0.0
50892,166.581,22.022,0.0
50925,166.746,22.154,0.0
50959,166.96,22.329,0.0
50992,167.257,22.592,0.0
51025,167.474,22.811,0.0
51059,167.618,22.982,0.0
51092,167.735,23.13,0.0
51125,167.839,23.253,0.0
51159,167.973,23.403,0.0
51192,168.181,23.584,0.0
51225,168.329,23.739,0.0
51258,168.513,23.907,0.0
51292,168.691,24.091,0.0
51325,168.818,24.242,0.0
51358,168.963,24.396,0.0
51392,169.085,24.553,0.0
51425,169.266,24.734,0.0
51458,169.142,24.766,0.0
51492,167.895,23.872,0.0
51525,165.898,22.131,0.0
51558,165.503,21.469,0.0
51592,165.956,21.581,0.0
51625,166.486,21.893,0.0
51658,166.618,21.978,0.0
51691,166.474,21.815,0.0
51725,166.616,21.863,0.0
51758,166.935,22.146,0.0
51791,167.172,22.385,0.0
51825,167.182,22.436,0.0
51858,167.111,22.395,0.0
51891,167.222,22.474,0.0
51925,167.407,22.646,0.0
51958,167.696,22.874,0.0
51991,168.009,23.161,0.0
52025,168.167,23.353,0.0
52058,168.34,23.534,0.0
52091,168.498,23.711,0.0
52124,168.621,23.862,0.0
52158,168.688,23.983,0.0
52191,168.865,24.147,0.0
52224,169.024,24.33,0.0
52258,169.14,24.471,0.0
52291,169.284,24.626,0.0
52324,169.405,24.763,0.0
52358,169.57,24.938,0.0
52391,169.713,25.108,0.0
52424,169.851,25.29,0.0
52457,169.849,25.372,0.0
52491,168.881,24.774,0.0
52524,167.068,23.214,0.0
52556,165.984,22.061,0.0
52591,166.254,22.013,0.0
52624,166.873,22.397,0.0
52657,167.067,22.561,0.0
52691,167.003,22.516,0.0
52724,167.107,22.544,0.0
52757,167.397,22.788,0.0
52791,167.607,22.992,0.0
52824,167.621,23.048,0.0
52857,167.514,22.972,0.0
52891,167.548,23.005,0.0
52924,167.775,23.169,0.0
52957,167.982,23.386,0.0
52990,168.208,23.619,0.0
53024,168.403,23.798,0.0
53056,168.534,23.977,0.0
53090,168.671,24.116,0.0
53124,168.844,24.294,0.0
53157,168.961,24.457,0.0
53190,169.005,24.521,0.0
53224,169.129,24.665,0.0
53257,169.237,24.798,0.0
53290,169.41,24.96,0.0
53323,169.537,25.123,0.0
53357,169.73,25.303,0.0
53390,169.86,25.509,0.0
53423,169.628,25.452,0.0
53457,167.961,24.203,0.0
53490,166.411,22.702,0.0
53523,166.251,22.239,0.0
53556,166.769,22.445,0.0
53590,167.239,22.789,0.0
53623,167.436,22.912,0.0
53657,167.472,22.929,0.0
53690,167.686,23.09,0.0
53723,167.846,23.268,0.0
53756,167.844,23.309,0.0
53790,167.71,23.208,0.0
53823,167.687,23.181,0.0
53856,167.797,23.255,0.0
53890,168.12,23.5,0.0
53923,168.42,23.773,0.0
53956,168.565,23.95,0.0
53990,168.678,24.092,0.0
54023,168.785,24.231,0.0
54056,168.911,24.396,0.0
54090,169.018,24.516,0.0
54123,169.048,24.583,0.0
54156,169.115,24.676,0.0
54189,169.148,24.74,0.0
54223,169.337,24.911,0.0
54256,169.473,25.107,0.0
54289,169.017,24.895,0.0
54323,167.151,23.438,0.0
54356,165.97,22.149,0.0
54389,165.79,21.701,0.0
54423,166.367,21.972,0.0
54456,166.721,22.176,0.0
54489,166.759,22.238,0.0
54522,166.689,22.124,0.0
54556,166.948,22.281,0.0
54589,167.199,22.521,0.0
54622,167.327,22.657,0.0
54656,167.254,22.621,0.0
54689,167.183,22.58,0.0
54722,167.253,22.641,0.0
54756,167.47,22.83,0.0
54822,167.842,23.215,0.0
54856,168.069,23.419,0.0
54889,168.224,23.565,0.0
54922,168.322,23.699,0.0
54955,168.44,23.824,0.0
54989,168.545,23.947,0.0
55022,168.666,24.069,0.0
55055,168.728,24.178,0.0
55089,168.833,24.262,0.0
55122,169.029,24.463,0.0
55155,168.892,24.477,0.0
55189,167.561,23.483,0.0
55222,165.985,21.988,0.0
55255,165.244,21.095,0.0
55289,165.792,21.285,0.0
55322,166.253,21.539,0.0
55355,166.272,21.554,0.0
55388,166.141,21.419,0.0
55422,166.281,21.455,0.0
55455,166.624,21.721,0.0
55488,166.909,21.989,0.0
55522,166.886,22.009,0.0
55555,166.759,21.943,0.0
55588,166.802,21.947,0.0
55622,167.051,22.131,0.0
55655,167.288,22.324,0.0
55688,167.535,22.593,0.0
55722,167.736,22.774,0.0
55755,167.92,22.951,0.0
55787,168.097,23.116,0.0
55821,168.25,23.267,0.0
55855,168.379,23.4,0.0
55888,168.548,23.554,0.0
55921,168.68,23.704,0.0
55955,168.754,23.798,0.0
55988,168.903,23.929,0.0
56021,169.125,24.144,0.0
56055,169.284,24.305,0.0
56088,169.411,24.453,0.0
56121,169.324,24.5,0.0
56155,167.968,23.545,0.0
56188,166.423,22.004,0.0
56221,165.628,21.074,0.0
56254,166.113,21.194,0.0
56287,166.722,21.554,0.0
56321,166.96,21.733,0.0
56354,166.845,21.634,0.0
56388,166.953,21.67,0.0
56421,167.286,21.933,0.0
56454,167.482,22.141,0.0
56488,167.524,22.196,0.0
56521,167.519,22.154,0.0
56554,167.496,22.172,0.0
56587,167.694,22.308,0.0
56621,167.938,22.524,0.0
56654,168.194,22.77,0.0
56687,168.448,22.995,0.0
56721,168.631,23.151,0.0
56754,168.714,23.294,0.0
56821,168.893,23.516,0.0
56854,169.003,23.639,0.0
56887,169.068,23.717,0.0
56921,169.194,23.871,0.0
56954,169.295,23.978,0.0
56987,169.511,24.185,0.0
57020,169.516,24.302,0.0
57054,168.518,23.599,0.0
57087,166.998,22.188,0.0
57120,166.179,21.223,0.0
57154,166.503,21.262,0.0
57187,167.047,21.636,0.0
57220,167.273,21.844,0.0
57254,167.382,21.916,0.0
57287,167.53,22.033,0.0
57320,167.773,22.262,0.0
57354,167.777,22.328,0.0
57387,167.666,22.268,0.0
57420,167.529,22.149,0.0
57453,167.623,22.207,0.0
57487,167.784,22.36,0.0
57520,168.016,22.586,0.0
57553,168.194,22.768,0.0
57587,168.375,22.904,0.0
57620,168.495,23.079,0.0
57653,168.601,23.195,0.0
57687,168.698,23.303,0.0
57720,168.861,23.41,0.0
57753,168.935,23.521,0.0
57787,169.029,23.612,0.0
57820,169.154,23.761,0.0
57853,169.059,23.795,0.0
57886,167.805,22.879,0.0
57920,166.446,21.535,0.0
57953,165.816,20.773,0.0
57986,166.245,20.939,0.0
58020,166.739,21.29,0.0
58053,166.901,21.435,0.0
58086,166.904,21.41,0.0
58120,167.078,21.556,0.0
58153,167.324,21.81,0.0
58186,167.474,21.977,0.0
58219,167.412,21.937,0.0
58253,167.358,21.899,0.0
58286,167.457,21.964,0.0
58319,167.652,22.147,0.0
58353,167.838,22.351,0.0
58386,168.05,22.581,0.0
58419,168.277,22.798,0.0
58453,168.39,22.948,0.0
58486,168.578,23.109,0.0
58518,168.668,23.26,0.0
58553,168.74,23.339,0.0
58586,168.88,23.454,0.0
58619,169.011,23.594,0.0
58652,169.202,23.775,0.0
58686,169.205,23.873,0.0
58719,168.313,23.272,0.0
58752,166.737,21.85,0.0
58786,165.763,20.813,0.0
58819,166.016,20.789,0.0
58852,166.554,21.129,0.0
58886,166.762,21.299,0.0
58919,166.721,21.25,0.0
58952,166.752,21.256,0.0
58986,167.113,21.556,0.0
59018,167.348,21.826,0.0
59085,167.376,21.924,0.0
59119,167.432,21.956,0.0
59152,167.586,22.081,0.0
59185,167.775,22.263,0.0
59219,168.039,22.523,0.0
59252,168.271,22.752,0.0
59285,168.451,22.942,0.0
59319,168.597,23.102,0.0
59352,168.797,23.276,0.0
59385,168.899,23.417,0.0
59419,168.968,23.529,0.0
59452,169.071,23.637,0.0
59485,169.225,23.813,0.0
59518,169.329,23.938,0.0
59552,169.498,24.106,0.0
59585,169.652,24.262,0.0
59652,170.026,24.655,0.0
59685,169.329,24.253,0.0
59718,167.603,22.779,0.0
59752,166.388,21.467,0.0
59785,166.445,21.253,0.0
59818,167.01,21.596,0.0
59852,167.301,21.832,0.0
59885,167.217,21.809,0.0
59918,167.125,21.744,0.0
59950,167.277,21.916,0.0
59985,167.551,22.191,0.0
60018,167.734,22.374,0.0
60051,167.726,22.407,0.0
60085,167.659,22.377,0.0
60118,167.769,22.503,0.0
60151,167.943,22.677,0.0
60185,168.233,22.937,0.0
60251,168.607,23.343,0.0
60284,168.793,23.541,0.0
60318,169.011,23.733,0.0
60351,169.182,23.902,0.0
60384,169.289,24.042,0.0
60418,169.435,24.2,0.0
60450,169.583,24.348,0.0
60484,169.665,24.468,0.0
60518,169.754,24.594,0.0
60551,169.901,24.774,0.0
60584,170.061,24.917,0.0
60618,170.184,25.102,0.0
60651,169.705,24.878,0.0
60684,168.172,23.576,0.0
60717,166.976,22.29,0.0
60751,166.906,22.002,0.0
60784,167.463,22.305,0.0
60817,167.88,22.629,0.0
60851,167.999,22.744,0.0
60884,168.02,22.76,0.0
60917,168.273,22.97,0.0
60950,168.423,23.151,0.0
60984,168.429,23.204,0.0
61051,168.271,23.12,0.0
61084,168.378,23.218,0.0
61117,168.574,23.416,0.0
61150,168.825,23.657,0.0
61184,168.979,23.86,0.0
61217,169.103,24.023,0.0
61250,169.22,24.181,0.0
61284,169.345,24.314,0.0
61317,169.463,24.438,0.0
61350,169.454,24.514,0.0
61384,169.584,24.635,0.0
61417,169.67,24.742,0.0
61450,169.795,24.87,0.0
61484,169.894,24.979,0.0
61517,170.057,25.15,0.0
61550,169.665,24.971,0.0
61583,168.143,23.735,0.0
61617,166.874,22.424,0.0
61650,166.836,22.114,0.0
61683,167.432,22.439,0.0
61717,167.773,22.714,0.0
61750,167.899,22.811,0.0
61783,167.97,22.842,0.0
61817,168.209,23.041,0.0
61850,168.329,23.189,0.0
61883,168.275,23.187,0.0
61917,168.172,23.102,0.0
61950,168.193,23.107,0.0
61983,168.382,23.239,0.0
62016,168.594,23.455,0.0
62050,168.872,23.711,0.0
62083,169.035,23.89,0.0
62116,169.18,24.059,0.0
62150,169.242,24.16,0.0
62183,169.324,24.274,0.0
62216,169.38,24.359,0.0
62250,169.475,24.455,0.0
62316,169.699,24.684,0.0
62350,169.859,24.899,0.0
62383,169.335,24.606,0.0
62416,167.771,23.339,0.0
62449,166.555,22.045,0.0
62483,166.506,21.726,0.0
62516,166.958,21.947,0.0
62549,167.243,22.136,0.0
62583,167.247,22.107,0.0
62616,167.27,22.046,0.0
62649,167.514,22.217,0.0
62683,167.813,22.47,0.0
62716,167.973,22.642,0.0
62782,167.943,22.606,0.0
62816,168.051,22.688,0.0
62849,168.298,22.879,0.0
62882,168.523,23.086,0.0
62916,168.731,23.307,0.0
62949,168.851,23.458,0.0
62982,169.039,23.637,0.0
63016,169.138,23.75,0.0
63049,169.263,23.898,0.0
63082,169.364,24.009,0.0
63116,169.386,24.081,0.0
63149,169.439,24.172,0.0
63215,169.678,24.415,0.0
63249,169.844,24.562,0.0
63282,169.894,24.695,0.0
63315,168.916,24.047,0.0
63349,167.34,22.559,0.0
63382,166.408,21.502,0.0
63415,166.669,21.436,0.0
63449,167.262,21.755,0.0
63482,167.429,21.854,0.0
63515,167.292,21.722,0.0
63549,167.319,21.659,0.0
63582,167.711,21.959,0.0
63615,167.973,22.22,0.0
63648,168.097,22.361,0.0
63715,167.972,22.296,0.0
63748,168.071,22.393,0.0
63782,168.287,22.575,0.0
63815,168.524,22.832,0.0
63848,168.705,22.989,0.0
63882,168.915,23.2,0.0
63915,169.058,23.359,0.0
63948,169.201,23.5,0.0
63982,169.323,23.643,0.0
64015,169.416,23.765,0.0
64048,169.59,23.915,0.0
64115,169.957,24.248,0.0
64148,170.025,24.376,0.0
64181,170.189,24.524,0.0
64215,170.311,24.678,0.0
64248,170.416,24.811,0.0
64281,170.571,24.98,0.0
64315,170.547,25.078,0.0
64348,169.436,24.312,0.0
64381,167.837,22.76,0.0
64415,167.056,21.813,0.0
64448,167.365,21.826,0.0
64481,167.979,22.257,0.0
64514,168.196,22.408,0.0
64548,168.056,22.287,0.0
64581,168.108,22.296,0.0
64614,168.502,22.593,0.0
64648,168.783,22.877,0.0
64714,168.759,22.922,0.0
64748,168.751,22.942,0.0
64781,168.96,23.077,0.0
64814,169.139,23.283,0.0
64847,169.355,23.529,0.0
64881,169.55,23.726,0.0
64914,169.629,23.866,0.0
64947,169.709,23.994,0.0
64981,169.843,24.145,0.0
65014,169.98,24.31,0.0
65047,170.016,24.397,0.0
65081,170.154,24.528,0.0
65114,170.283,24.691,0.0
65147,170.383,24.83,0.0
65181,170.48,24.969,0.0
65214,170.576,25.096,0.0
65247,170.723,25.252,0.0
65280,170.81,25.406,0.0
65314,170.125,25.027,0.0
65347,168.402,23.535,0.0
65380,167.576,22.548,0.0
65414,167.712,22.409,0.0
65447,168.334,22.844,0.0
65480,168.662,23.131,0.0
65514,168.73,23.195,0.0
65580,169.014,23.435,0.0
65614,169.053,23.533,0.0
65647,168.903,23.475,0.0
65680,168.775,23.373,0.0
65713,168.824,23.376,0.0
65747,169.044,23.554,0.0
65780,169.28,23.765,0.0
65813,169.49,24.012,0.0
65847,169.607,24.168,0.0
65880,169.683,24.304,0.0
65912,169.818,24.466,0.0
65947,169.954,24.616,0.0
65980,169.983,24.688,0.0
66013,170.078,24.797,0.0
66047,170.162,24.902,0.0
66080,170.24,25.032,0.0
66113,170.222,25.098,0.0
66146,169.131,24.362,0.0
66180,167.757,23.018,0.0
66213,167.066,22.191,0.0
66246,167.376,22.233,0.0
66313,168.172,22.813,0.0
66346,168.156,22.808,0.0
66380,168.291,22.901,0.0
66412,168.569,23.171,0.0
66446,168.563,23.287,0.0
66480,168.542,23.278,0.0
66513,168.472,23.233,0.0
66546,168.551,23.277,0.0
66579,168.705,23.443,0.0
66613,168.917,23.679,0.0
66646,169.146,23.914,0.0
66713,169.411,24.249,0.0
66746,169.52,24.392,0.0
66779,169.604,24.516,0.0
66813,169.704,24.633,0.0
66846,169.781,24.74,0.0
66879,169.916,24.886,0.0
66912,170.152,25.098,0.0
66946,169.825,25.001,0.0
66979,168.425,23.886,0.0
67012,167.026,22.473,0.0
67046,166.707,21.942,0.0
67079,167.244,22.182,0.0
67112,167.641,22.454,0.0
67146,167.7,22.51,0.0
67179,167.62,22.411,0.0
67212,167.785,22.524,0.0
67246,168.071,22.796,0.0
67312,168.129,22.976,0.0
67345,168.088,22.923,0.0
67379,168.243,23.032,0.0
67412,168.399,23.216,0.0
67445,168.657,23.453,0.0
67479,168.899,23.692,0.0
67512,169.062,23.884,0.0
67545,169.223,24.058,0.0
67579,169.303,24.198,0.0
67612,169.421,24.316,0.0
67645,169.528,24.442,0.0
67679,169.649,24.595,0.0
67712,169.798,24.72,0.0
67745,169.93,24.87,0.0
67778,170.022,25.0,0.0
67812,170.213,25.179,0.0
67845,170.169,25.241,0.0
67878,168.931,24.371,0.0
67912,167.349,22.85,0.0
67945,166.697,22.041,0.0
67978,167.197,22.182,0.0
68012,167.766,22.569,0.0
68045,167.896,22.639,0.0
68078,167.773,22.532,0.0
68112,167.973,22.602,0.0
68145,168.312,22.899,0.0
68211,168.646,23.249,0.0
68245,168.621,23.254,0.0
68278,168.657,23.272,0.0
68311,168.828,23.443,0.0
68345,169.067,23.662,0.0
68378,169.314,23.923,0.0
68411,169.474,24.132,0.0
68445,169.61,24.292,0.0
68478,169.762,24.448,0.0
68511,169.912,24.613,0.0
68545,170.014,24.757,0.0
68611,170.233,25.0,0.0
68643,170.297,25.126,0.0
68678,170.379,25.232,0.0
68711,170.538,25.394,0.0
68744,170.653,25.544,0.0
68778,170.822,25.703,0.0
68811,170.843,25.82,0.0
68878,168.164,23.605,0.0
68911,167.445,22.692,0.0
68944,167.774,22.735,0.0
68977,168.391,23.143,0.0
69011,168.576,23.309,0.0
69044,168.522,23.243,0.0
69077,168.628,23.313,0.0
69111,168.887,23.544,0.0
69143,169.017,23.694,0.0
69177,168.963,23.725,0.0
69211,168.874,23.652,0.0
69244,168.973,23.7,0.0
69277,169.126,23.866,0.0
69311,169.344,24.084,0.0
69344,169.557,24.285,0.0
69410,169.811,24.624,0.0
69444,169.926,24.774,0.0
69477,170.011,24.874,0.0
69510,170.089,24.962,0.0
69544,170.14,25.036,0.0
69577,170.167,25.104,0.0
69610,170.301,25.227,0.0
69643,170.443,25.396,0.0
69677,169.969,25.161,0.0
69710,168.521,23.95,0.0
69744,167.413,22.8,0.0
69777,167.421,22.563,0.0
69810,167.921,22.836,0.0
69843,168.226,23.084,0.0
69877,168.344,23.173,0.0
69910,168.422,23.217,0.0
69943,168.674,23.424,0.0
69977,168.723,23.53,0.0
70010,168.68,23.528,0.0
70043,168.545,23.435,0.0
70110,168.789,23.604,0.0
70143,168.99,23.802,0.0
70177,169.271,24.088,0.0
70210,169.408,24.26,0.0
70243,169.535,24.407,0.0
70276,169.672,24.566,0.0
70310,169.765,24.689,0.0
70343,169.823,24.768,0.0
70376,169.856,24.876,0.0
70410,169.939,24.971,0.0
70443,170.072,25.104,0.0
70476,169.661,24.918,0.0
70510,168.126,23.727,0.0
70543,166.497,22.215,0.0
70575,166.481,21.895,0.0
70610,167.04,22.175,0.0
70643,167.297,22.363,0.0
70676,167.315,22.345,0.0
70709,167.24,22.241,0.0
70743,167.45,22.383,0.0
70776,167.781,22.693,0.0
70809,167.77,22.768,0.0
70843,167.631,22.68,0.0
70876,167.583,22.643,0.0
70909,167.669,22.732,0.0
70943,167.816,22.88,0.0
70976,168.112,23.119,0.0
71042,168.524,23.552,0.0
71075,168.689,23.72,0.0
71109,168.768,23.845,0.0
71142,168.903,23.981,0.0
71176,168.998,24.099,0.0
71209,169.034,24.192,0.0
71242,169.111,24.285,0.0
71276,169.207,24.387,0.0
71309,169.372,24.535,0.0
71342,169.57,24.72,0.0
71376,169.613,24.838,0.0
71409,168.983,24.505,0.0
71442,167.205,23.01,0.0
71475,166.085,21.832,0.0
71509,166.17,21.636,0.0
71542,166.726,21.943,0.0
71575,167.018,22.125,0.0
71642,166.87,21.945,0.0
71675,167.212,22.195,0.0
71709,167.534,22.499,0.0
71742,167.616,22.616,0.0
71775,167.601,22.609,0.0
71809,167.602,22.625,0.0
71842,167.732,22.739,0.0
71875,167.908,22.893,0.0
71908,168.131,23.107,0.0
71942,168.333,23.345,0.0
71975,168.493,23.513,0.0
72008,168.665,23.672,0.0
72042,168.781,23.831,0.0
72075,168.887,23.963,0.0
72108,168.955,24.081,0.0
72175,169.216,24.375,0.0
72208,169.27,24.492,0.0
72242,169.371,24.611,0.0
72275,169.596,24.817,0.0
72308,169.724,24.969,0.0
72341,169.86,25.13,0.0
72375,169.947,25.278,0.0
72408,169.554,25.102,0.0
72441,167.971,23.837,0.0
72475,166.557,22.435,0.0
72508,166.348,22.012,0.0
72541,166.863,22.276,0.0
72575,167.328,22.586,0.0
72608,167.345,22.611,0.0
72641,167.25,22.518,0.0
72675,167.435,22.664,0.0
72708,167.779,22.946,0.0
72741,167.815,23.031,0.0
72774,167.732,22.994,0.0
72808,167.761,23.004,0.0
72841,167.808,23.062,0.0
72874,167.977,23.212,0.0
72908,168.096,23.378,0.0
72941,168.276,23.563,0.0
73008,168.394,23.801,0.0
73041,168.501,23.939,0.0
73074,168.526,24.031,0.0
73107,168.632,24.136,0.0
73141,168.724,24.245,0.0
73174,168.862,24.405,0.0
73207,168.922,24.497,0.0
73241,168.979,24.587,0.0
73274,169.084,24.713,0.0
73306,169.184,24.859,0.0
73341,169.09,24.885,0.0
73374,167.793,23.974,0.0
73407,166.416,22.639,0.0
73441,165.784,21.894,0.0
73474,166.275,22.12,0.0
73507,166.742,22.459,0.0
73540,166.91,22.594,0.0
73574,166.958,22.614,0.0
73607,167.109,22.738,0.0
73640,167.259,22.898,0.0
73674,167.159,22.85,0.0
73707,167.105,22.756,0.0
73740,167.101,22.75,0.0
73806,167.33,22.975,0.0
73840,167.564,23.181,0.0
73874,167.664,23.35,0.0
73907,167.757,23.46,0.0
73940,167.9,23.605,0.0
73973,168.054,23.749,0.0
74007,168.091,23.813,0.0
74040,168.165,23.896,0.0
74073,168.251,24.001,0.0
74107,168.355,24.119,0.0
74140,168.343,24.187,0.0
74173,167.449,23.635,0.0
74207,165.964,22.33,0.0
74240,165.108,21.374,0.0
74273,165.24,21.293,0.0
74306,165.698,21.571,0.0
74340,165.956,21.774,0.0
74373,165.894,21.723,0.0
74406,165.978,21.762,0.0
74440,166.22,21.964,0.0
74473,166.31,22.096,0.0
74506,166.271,22.092,0.0
74540,166.158,22.017,0.0
74573,166.181,22.026,0.0
74606,166.347,22.145,0.0
74640,166.53,22.329,0.0
74706,166.872,22.702,0.0
74740,167.052,22.874,0.0
74773,167.199,23.013,0.0
74806,167.292,23.129,0.0
74839,167.383,23.221,0.0
74873,167.463,23.317,0.0
74906,167.604,23.437,0.0
74939,167.709,23.595,0.0
74973,167.608,23.604,0.0
75006,166.37,22.717,0.0
75039,164.968,21.375,0.0
75073,164.362,20.648,0.0
75106,164.77,20.777,0.0
75139,165.162,21.027,0.0
75173,165.202,21.076,0.0
75206,165.083,20.97,0.0
75239,165.219,21.042,0.0
75273,165.494,21.304,0.0
75306,165.627,21.475,0.0
75339,165.7,21.571,0.0
75372,165.595,21.505,0.0
75406,165.58,21.506,0.0
75439,165.677,21.605,0.0
75506,166.06,21.98,0.0
75539,166.159,22.126,0.0
75572,166.323,22.293,0.0
75605,166.543,22.467,0.0
75639,166.584,22.57,0.0
75672,166.664,22.674,0.0
75705,166.787,22.782,0.0
75772,167.015,23.03,0.0
75805,167.093,23.118,0.0
75839,167.214,23.257,0.0
75872,167.352,23.403,0.0
75905,167.492,23.578,0.0
75939,166.746,23.149,0.0
75972,165.124,21.756,0.0
76005,164.049,20.617,0.0
76037,164.265,20.532,0.0
76072,164.831,20.884,0.0
76105,165.075,21.065,0.0
76138,165.032,21.007,0.0
76172,165.04,20.972,0.0
76205,165.338,21.2,0.0
76238,165.621,21.469,0.0
76272,165.718,21.584,0.0
76305,165.652,21.58,0.0
76372,165.756,21.663,0.0
76405,166.015,21.873,0.0
76438,166.238,22.083,0.0
76471,166.403,22.264,0.0
76505,166.654,22.488,0.0
76537,166.774,22.633,0.0
76571,166.946,22.836,0.0
76605,167.059,22.953,0.0
76638,167.203,23.106,0.0
76671,167.331,23.237,0.0
76705,167.491,23.408,0.0
76771,167.805,23.731,0.0
76805,167.974,23.898,0.0
76838,168.154,24.071,0.0
76871,168.306,24.243,0.0
76904,167.526,23.808,0.0
76938,165.885,22.401,0.0
76971,164.739,21.219,0.0
77004,165.032,21.213,0.0
77037,165.63,21.598,0.0
77071,165.982,21.87,0.0
77104,165.874,21.838,0.0
77138,165.936,21.849,0.0
77171,166.17,22.071,0.0
77204,166.255,22.24,0.0
77238,166.257,22.299,0.0
77271,166.19,22.257,0.0
77304,166.16,22.253,0.0
77337,166.293,22.38,0.0
77371,166.494,22.561,0.0
77404,166.774,22.806,0.0
77437,167.014,23.046,0.0
77471,167.28,23.28,0.0
77537,168.13,23.798,0.0
77571,168.738,24.127,0.0
77604,169.272,24.492,0.0
77637,169.592,24.729,0.0
77670,169.838,24.978,0.0
77704,169.911,25.112,0.0
77737,169.922,25.244,0.0
77770,169.571,25.196,0.0
77804,168.015,24.124,0.0
77837,166.119,22.477,0.0
77870,165.433,21.701,0.0
77904,165.856,21.855,0.0
77937,166.393,22.255,0.0
78004,166.506,22.402,0.0
78037,166.672,22.554,0.0
78070,166.765,22.702,0.0
78103,166.656,22.688,0.0
78137,166.485,22.561,0.0
78170,166.469,22.509,0.0
78203,166.673,22.668,0.0
78237,166.851,22.845,0.0
78270,167.109,23.098,0.0
78303,167.294,23.298,0.0
78337,167.48,23.474,0.0
78370,167.616,23.63,0.0
78403,167.698,23.749,0.0
78437,167.705,23.822,0.0
78470,167.674,23.872,0.0
78536,167.551,23.966,0.0
78570,166.427,23.202,0.0
78603,164.881,21.801,0.0
78636,164.256,21.054,0.0
78670,164.624,21.145,0.0
78703,165.055,21.429,0.0
78736,165.249,21.591,0.0
78770,165.21,21.562,0.0
78803,165.357,21.651,0.0
78836,165.596,21.886,0.0
78869,165.748,22.053,0.0
78903,165.681,22.012,0.0
78936,165.644,21.993,0.0
79003,165.935,22.21,0.0
79036,166.199,22.435,0.0
79069,166.482,22.69,0.0
79103,166.703,22.894,0.0
79136,166.829,23.063,0.0
79169,166.901,23.188,0.0
79203,166.931,23.252,0.0
79236,167.076,23.368,0.0
79268,167.154,23.472,0.0
79303,167.302,23.607,0.0
79336,167.361,23.707,0.0
79369,166.808,23.414,0.0
79436,164.072,20.925,0.0
79469,164.189,20.737,0.0
79502,164.739,21.044,0.0
79536,164.948,21.183,0.0
79569,164.936,21.145,0.0
79602,164.976,21.123,0.0
79636,165.298,21.345,0.0
79669,165.549,21.603,0.0
79702,165.702,21.772,0.0
79735,165.681,21.752,0.0
79768,165.614,21.71,0.0
79802,165.791,21.827,0.0
79835,166.034,22.019,0.0
79869,166.261,22.236,0.0
79935,166.652,22.622,0.0
79969,166.869,22.829,0.0
80002,166.984,22.951,0.0
80035,167.097,23.09,0.0
80069,167.173,23.182,0.0
80102,167.341,23.33,0.0
80135,167.482,23.473,0.0
80168,167.654,23.635,0.0
80202,167.907,23.846,0.0
80235,167.739,23.842,0.0
80268,166.401,22.838,0.0
80335,164.668,20.967,0.0
80368,165.18,21.208,0.0
80402,165.617,21.504,0.0
80435,165.63,21.519,0.0
80468,165.592,21.464,0.0
80502,165.891,21.668,0.0
80535,166.209,21.94,0.0
80568,166.379,22.156,0.0
80601,166.32,22.144,0.0
80635,166.302,22.118,0.0
80668,166.375,22.183,0.0
80735,166.924,22.62,0.0
80768,167.184,22.868,0.0
80801,167.329,23.059,0.0
80835,167.475,23.187,0.0
80868,167.598,23.35,0.0
80901,167.75,23.509,0.0
80935,167.85,23.612,0.0
80968,167.861,23.682,0.0
81001,167.951,23.789,0.0
81034,168.063,23.908,0.0
81068,168.346,24.133,0.0
81101,168.434,24.271,0.0
81134,167.886,23.988,0.0
81200,165.27,21.638,0.0
81234,165.466,21.56,0.0
81268,166.023,21.931,0.0
81301,166.295,22.155,0.0
81334,166.344,22.181,0.0
81368,166.445,22.24,0.0
81401,166.696,22.49,0.0
81434,166.803,22.651,0.0
81467,166.763,22.655,0.0
81501,166.668,22.58,0.0
81534,166.686,22.593,0.0
81567,166.857,22.73,0.0
81601,167.067,22.945,0.0
81634,167.333,23.184,0.0
81667,167.554,23.375,0.0
81700,167.702,23.541,0.0
81734,167.8,23.665,0.0
81767,167.849,23.74,0.0
81800,167.877,23.802,0.0
81834,167.962,23.895,0.0
81867,168.069,23.996,0.0
81900,168.301,24.186,0.0
81934,168.437,24.356,0.0
82000,165.84,22.361,0.0
82034,165.34,21.629,0.0
82067,165.734,21.758,0.0
82100,166.191,22.07,0.0
82134,166.296,22.166,0.0
82167,166.327,22.134,0.0
82200,166.496,22.253,0.0
82233,166.738,22.485,0.0
82267,166.903,22.653,0.0
82300,166.757,22.595,0.0
82333,166.726,22.553,0.0
82367,166.812,22.611,0.0
82400,167.014,22.794,0.0
82433,167.268,23.016,0.0
82467,167.512,23.253,0.0
82500,167.626,23.397,0.0
82533,167.806,23.562,0.0
82567,167.947,23.701,0.0
82600,168.01,23.793,0.0
82633,168.16,23.919,0.0
82700,168.393,24.164,0.0
82733,168.527,24.296,0.0
82766,168.275,24.228,0.0
82800,166.974,23.222,0.0
82833,165.657,21.959,0.0
82866,165.456,21.565,0.0
82900,165.978,21.831,0.0
82933,166.278,22.032,0.0
82966,166.256,22.016,0.0
83000,166.233,21.946,0.0
83033,166.55,22.147,0.0
83066,166.936,22.472,0.0
83099,167.142,22.694,0.0
83133,167.125,22.709,0.0
83199,167.194,22.756,0.0
83233,167.432,22.967,0.0
83266,167.664,23.201,0.0
83299,167.878,23.422,0.0
83333,168.054,23.602,0.0
83366,168.154,23.751,0.0
83399,168.212,23.861,0.0
83431,168.255,23.974,0.0
83466,168.389,24.11,0.0
83499,168.571,24.281,0.0
83532,168.697,24.417,0.0
83599,169.036,24.755,0.0
83632,169.154,24.883,0.0
83666,169.276,25.052,0.0
83699,169.269,25.15,0.0
83732,168.278,24.504,0.0
83766,166.754,23.097,0.0
83799,166.052,22.199,0.0
83832,166.42,22.252,0.0
83865,167.011,22.617,0.0
83899,167.174,22.756,0.0
83931,167.078,22.632,0.0
83965,167.161,22.628,0.0
83999,167.558,22.933,0.0
84032,167.811,23.211,0.0
84099,167.864,23.303,0.0
84132,167.899,23.315,0.0
84165,168.042,23.453,0.0
84199,168.221,23.642,0.0
84232,168.491,23.891,0.0
84265,168.698,24.093,0.0
84298,168.958,24.34,0.0
84365,169.204,24.645,0.0
84398,169.334,24.766,0.0
84431,169.507,24.946,0.0
84465,169.65,25.098,0.0
84498,169.81,25.265,0.0
84532,169.911,25.405,0.0
84565,170.105,25.583,0.0
84598,170.244,25.733,0.0
84632,170.375,25.896,0.0
84665,170.5,26.024,0.0
84698,170.644,26.19,0.0
84731,170.559,26.223,0.0
84765,169.354,25.388,0.0
84798,167.755,23.867,0.0
84831,167.041,22.966,0.0
84865,167.579,23.145,0.0
84898,168.121,23.481,0.0
84931,168.407,23.713,0.0
84965,168.326,23.622,0.0
84998,168.414,23.655,0.0
85031,168.646,23.877,0.0
85065,168.814,24.038,0.0
85131,168.924,24.146,0.0
85164,169.035,24.212,0.0
85198,169.173,24.366,0.0
85231,169.258,24.537,0.0
85264,169.341,24.648,0.0
85298,169.439,24.797,0.0
85331,169.642,24.991,0.0
85364,169.801,25.165,0.0
85398,169.875,25.294,0.0
85431,169.893,25.352,0.0
85464,169.984,25.468,0.0
85498,170.106,25.596,0.0
85531,170.147,25.683,0.0
85564,170.247,25.811,0.0
85631,170.493,26.114,0.0
85664,170.501,26.237,0.0
85697,169.348,25.445,0.0
85731,167.849,24.044,0.0
85764,167.277,23.279,0.0
85797,167.688,23.373,0.0
85831,168.33,23.813,0.0
85864,168.603,24.061,0.0
85897,168.623,24.078,0.0
85930,168.71,24.133,0.0
85997,168.828,24.333,0.0
86030,168.696,24.235,0.0
86064,168.665,24.186,0.0
86097,168.765,24.262,0.0
86130,168.946,24.432,0.0
86164,169.156,24.646,0.0
86197,169.369,24.869,0.0
86230,169.457,25.001,0.0
86264,169.55,25.124,0.0
86297,169.624,25.231,0.0
86330,169.767,25.374,0.0
86363,169.829,25.464,0.0
86397,169.904,25.56,0.0
86430,170.046,25.696,0.0
86463,169.885,25.699,0.0
86530,167.225,23.438,0.0
86563,166.808,22.792,0.0
86597,167.2,22.903,0.0
86630,167.729,23.263,0.0
86662,167.917,23.428,0.0
86697,167.868,23.383,0.0
86730,168.024,23.482,0.0
86763,168.312,23.742,0.0
86796,168.442,23.874,0.0
86830,168.286,23.815,0.0
86863,168.218,23.745,0.0
86896,168.33,23.818,0.0
86930,168.513,23.997,0.0
86963,168.717,24.214,0.0
86996,168.95,24.45,0.0
87030,169.099,24.616,0.0
87063,169.211,24.76,0.0
87096,169.294,24.876,0.0
87130,169.321,24.967,0.0
87196,169.418,25.137,0.0
87229,169.513,25.234,0.0
87263,169.74,25.447,0.0
87296,169.564,25.437,0.0
87329,168.259,24.527,0.0
87363,166.761,23.113,0.0
87396,166.053,22.26,0.0
87429,166.535,22.397,0.0
87463,167.101,22.736,0.0
87529,167.214,22.759,0.0
87562,167.313,22.81,0.0
87596,167.586,23.035,0.0
87629,167.813,23.251,0.0
87662,167.935,23.374,0.0
87696,167.818,23.319,0.0
87729,167.822,23.347,0.0
87762,167.966,23.462,0.0
87796,168.225,23.661,0.0
87829,168.489,23.925,0.0
87862,168.599,24.085,0.0
87929,168.98,24.458,0.0
87962,169.075,24.584,0.0
87996,169.185,24.711,0.0
88029,169.284,24.818,0.0
88062,169.432,24.991,0.0
88095,169.528,25.111,0.0
88129,169.645,25.269,0.0
88162,169.816,25.456,0.0
88195,170.024,25.628,0.0
88262,169.901,25.733,0.0
88295,168.364,24.573,0.0
88329,166.964,23.156,0.0
88362,166.56,22.545,0.0
88395,167.084,22.791,0.0
88428,167.63,23.161,0.0
88462,167.724,23.228,0.0
88495,167.609,23.114,0.0
88528,167.772,23.221,0.0
88562,168.112,23.509,0.0
88595,168.216,23.661,0.0
88628,168.246,23.708,0.0
88662,168.183,23.674,0.0
88695,168.263,23.747,0.0
88728,168.428,23.913,0.0
88762,168.698,24.14,0.0
88795,168.867,24.353,0.0
88828,168.997,24.537,0.0
88861,169.083,24.677,0.0
88895,169.211,24.805,0.0
88961,169.425,25.083,0.0
88995,169.512,25.198,0.0
89028,169.598,25.313,0.0
89061,169.695,25.445,0.0
89095,169.843,25.595,0.0
89128,169.983,25.753,0.0
89194,169.794,25.818,0.0
89228,168.317,24.679,0.0
89261,167.019,23.393,0.0
89294,166.812,22.972,0.0
89328,167.498,23.327,0.0
89361,167.907,23.646,0.0
89393,168.011,23.762,0.0
89428,168.047,23.785,0.0
89461,168.22,23.94,0.0
89494,168.398,24.112,0.0
89528,168.368,24.149,0.0
89561,168.298,24.072,0.0
89594,168.323,24.08,0.0
89627,168.41,24.168,0.0
89661,168.586,24.358,0.0
89694,168.831,24.583,0.0
89727,169.015,24.791,0.0
89761,169.1,24.925,0.0
89794,169.162,25.035,0.0
89827,169.252,25.139,0.0
89861,169.277,25.209,0.0
89927,169.426,25.414,0.0
89961,169.511,25.544,0.0
89994,169.552,25.655,0.0
90027,168.391,24.86,0.0
90060,166.838,23.49,0.0
90094,166.195,22.71,0.0
90127,166.621,22.842,0.0
90194,167.443,23.388,0.0
90227,167.336,23.347,0.0
90260,167.475,23.406,0.0
90294,167.723,23.663,0.0
90327,167.73,23.758,0.0
90360,167.624,23.7,0.0
90393,167.562,23.644,0.0
90427,167.643,23.719,0.0
90493,168.048,24.1,0.0
90527,168.287,24.338,0.0
90560,168.476,24.541,0.0
90593,168.616,24.718,0.0
90627,168.71,24.855,0.0
90660,168.753,24.962,0.0
90693,168.815,25.049,0.0
90727,168.935,25.175,0.0
90760,169.051,25.305,0.0
90793,169.155,25.453,0.0
90827,169.149,25.56,0.0
90860,167.903,24.725,0.0
90893,166.255,23.262,0.0
90926,165.469,22.37,0.0
90960,165.845,22.437,0.0
91026,166.484,22.846,0.0
91060,166.437,22.764,0.0
91093,166.547,22.825,0.0
91126,166.85,23.057,0.0
91160,167.077,23.287,0.0
91193,167.145,23.405,0.0
91226,167.089,23.358,0.0
91260,167.133,23.38,0.0
91293,167.335,23.533,0.0
91325,167.552,23.734,0.0
91359,167.856,24.026,0.0
91393,168.046,24.236,0.0
91426,168.225,24.434,0.0
91459,168.371,24.574,0.0
91493,168.546,24.76,0.0
91526,168.624,24.901,0.0
91559,168.724,25.023,0.0
