time,R,G,B
0,196.956,15.199,14.254
34,197.153,15.179,14.15
67,197.01,15.401,14.29
100,196.827,15.661,14.501
134,197.164,15.741,14.565
167,197.385,15.876,14.624
200,197.07,16.108,14.744
233,197.377,15.969,14.645
267,197.818,16.258,14.798
300,197.239,16.64,14.936
334,196.863,16.811,14.997
367,197.505,16.952,15.114
400,198.187,17.139,15.225
434,198.587,17.246,15.259
467,202.291,16.928,15.549
500,203.561,16.227,14.8
533,203.886,16.293,14.815
567,203.439,16.094,14.634
600,201.622,15.433,14.317
633,200.976,15.09,14.147
667,201.185,15.154,14.21
700,201.657,15.462,14.427
733,202.018,15.849,14.656
767,202.252,16.086,14.768
800,202.391,16.543,15.048
833,201.89,16.283,14.833
867,201.562,16.143,14.644
900,201.274,16.208,14.645
933,200.742,16.021,14.442
967,200.803,15.957,14.377
1000,201.288,16.23,14.575
1033,201.79,16.569,14.821
1067,202.105,16.789,14.937
1100,202.131,16.907,14.95
1133,202.438,17.141,15.066
1166,202.64,17.377,15.19
1200,202.366,17.381,15.065
1233,202.188,17.445,15.045
1266,202.056,17.369,14.915
1300,201.906,17.407,14.88
1333,201.593,17.32,14.755
1366,201.308,17.146,14.559
1400,200.471,16.622,14.059
1433,198.8,16.203,13.871
1466,197.896,16.088,13.906
1500,197.881,16.135,14.0
1533,198.5,16.566,14.341
1566,199.223,17.057,14.695
1600,199.765,17.22,14.77
1633,200.224,17.363,14.809
1666,200.318,17.369,14.721
1700,200.049,17.166,14.471
1733,199.488,16.763,14.075
1766,199.384,16.776,14.088
1799,199.657,17.229,14.491
1833,199.817,17.208,14.462
1866,200.028,17.261,14.491
1899,200.241,17.57,14.672
1933,200.469,17.787,14.795
1966,200.599,17.823,14.744
1999,200.638,17.759,14.632
2033,200.806,17.906,14.699
2066,200.643,17.9,14.614
2099,200.657,18.201,14.789
2133,200.133,18.325,14.73
2166,198.915,17.873,14.231
2199,196.651,17.305,14.062
2233,194.874,17.052,14.071
2266,194.946,17.027,14.167
2299,195.539,17.275,14.349
2333,196.381,17.414,14.451
2366,196.849,17.569,14.492
2399,197.345,17.867,14.632
2432,197.632,17.989,14.689
2466,197.253,17.711,14.431
2499,196.847,17.47,14.211
2532,196.61,17.361,14.106
2566,196.748,17.568,14.273
2599,196.785,17.59,14.275
2632,196.948,17.737,14.363
2666,197.242,17.889,14.467
2699,197.474,18.006,14.506
2732,197.736,18.168,14.591
2766,197.652,18.091,14.447
2799,197.802,18.186,14.485
2832,198.127,18.368,14.591
2866,198.172,18.494,14.629
2899,198.098,18.482,14.545
2932,197.98,18.465,14.469
2966,197.507,18.159,14.164
2999,195.569,17.355,13.69
3032,193.861,16.897,13.606
3065,193.577,16.935,13.705
3099,194.147,17.267,13.969
3132,194.816,17.494,14.143
3165,195.409,17.751,14.274
3199,195.764,17.899,14.347
3232,195.857,17.837,14.268
3265,195.779,17.811,14.19
3299,195.4,17.532,13.937
3332,195.091,17.303,13.758
3365,195.18,17.355,13.82
3399,195.415,17.379,13.849
3432,195.635,17.437,13.881
3465,196.006,17.655,14.05
3499,196.388,17.947,14.248
3532,196.407,17.836,14.093
3565,196.414,17.743,13.979
3599,196.587,17.807,14.018
3632,196.687,17.755,13.943
3665,196.68,17.76,13.905
3699,196.685,17.839,13.949
3732,196.697,17.845,13.932
3765,196.848,17.975,14.008
3798,196.769,17.954,13.952
3832,195.129,16.955,13.138
3865,193.077,16.523,13.128
3898,192.194,16.43,13.161
3932,192.602,16.631,13.352
3965,193.354,16.961,13.62
3998,193.949,17.18,13.748
4032,194.455,17.312,13.82
4065,194.795,17.428,13.85
4098,194.514,17.233,13.648
4132,193.94,16.871,13.329
4165,193.575,16.654,13.159
4198,193.591,16.676,13.229
4232,193.831,16.767,13.338
4265,194.187,16.942,13.496
4298,194.489,17.068,13.576
4332,194.813,17.146,13.621
4365,195.046,17.126,13.574
4398,195.169,17.101,13.526
4431,195.369,17.06,13.469
4465,195.684,17.068,13.475
4498,196.102,17.074,13.482
4531,196.264,16.942,13.352
4565,196.497,16.842,13.284
4598,197.028,16.776,13.254
4631,197.597,16.602,13.118
4665,197.092,16.036,12.595
4698,195.083,15.148,12.082
4731,193.644,14.698,11.96
4765,194.063,14.532,11.96
4798,195.186,14.84,12.242
4831,195.715,15.067,12.382
4865,196.044,15.115,12.395
4898,196.422,15.089,12.372
4931,196.529,15.052,12.27
4965,196.052,14.908,12.111
4998,195.545,14.76,11.955
5031,195.3,14.698,11.912
5064,195.347,14.744,11.981
5098,195.654,14.83,12.084
5131,195.957,14.975,12.2
5164,196.153,15.128,12.279
5198,196.368,15.152,12.287
5231,196.491,15.158,12.261
5264,196.631,15.139,12.218
5298,196.735,15.168,12.214
5331,196.792,15.293,12.271
5364,196.804,15.275,12.232
5398,196.775,15.229,12.173
5431,196.849,15.331,12.225
5464,197.106,15.239,12.16
5498,198.015,15.171,12.123
5531,198.411,14.795,11.778
5564,196.436,13.708,10.937
5598,194.53,13.379,10.947
5631,194.017,13.313,10.979
5664,194.622,13.655,11.275
5697,195.196,13.904,11.488
5731,195.6,14.072,11.584
5764,195.973,14.236,11.69
5797,196.045,14.211,11.62
5831,195.644,13.927,11.326
5864,195.148,13.784,11.153
5897,194.688,13.643,11.026
5931,194.729,13.756,11.15
5964,195.015,13.975,11.352
5997,195.26,14.119,11.465
6031,195.616,14.272,11.583
6064,195.886,14.36,11.624
6097,195.986,14.352,11.581
6131,196.223,14.409,11.586
6164,196.374,14.482,11.61
6197,196.351,14.474,11.558
6231,196.441,14.521,11.567
6264,196.394,14.491,11.511
6297,196.346,14.455,11.45
6330,196.616,14.591,11.557
6364,196.813,14.738,11.634
6397,196.867,14.709,11.578
6430,196.688,14.442,11.342
6464,195.015,13.479,10.611
6497,192.46,12.925,10.396
6530,191.032,12.688,10.343
6564,191.228,12.936,10.557
6597,191.865,13.294,10.829
6630,192.653,13.815,11.153
6664,192.972,14.166,11.347
6697,193.204,14.176,11.338
6730,193.237,14.038,11.222
6764,192.95,13.856,11.041
6797,192.611,13.754,10.937
6830,192.581,13.782,10.962
6864,192.716,13.854,11.009
6897,192.976,13.972,11.07
6930,193.473,14.23,11.248
6964,193.858,14.406,11.366
6997,194.1,14.428,11.339
7030,194.41,14.506,11.376
7063,194.58,14.586,11.389
7097,194.727,14.581,11.349
7130,194.766,14.595,11.331
7163,194.702,14.512,11.222
7197,194.703,14.521,11.204
7230,194.817,14.649,11.29
7263,194.952,14.733,11.329
7297,195.086,14.736,11.317
7330,194.888,14.513,11.081
7363,193.045,13.576,10.338
7397,190.739,13.277,10.403
7430,189.681,13.177,10.464
7463,190.073,13.396,10.676
7497,190.83,13.677,10.886
7530,191.43,13.897,11.014
7563,191.945,14.071,11.091
7596,192.26,14.133,11.105
7630,192.005,13.976,10.916
7663,191.351,13.736,10.644
7696,190.787,13.614,10.526
7730,190.604,13.588,10.543
7763,190.841,13.731,10.689
7796,191.43,14.027,10.964
7830,191.845,14.178,11.054
7863,192.095,14.225,11.057
7896,192.424,14.286,11.083
7930,192.679,14.341,11.098
7963,192.708,14.273,10.999
7996,192.759,14.252,10.952
8030,192.861,14.301,10.966
8063,192.869,14.262,10.918
8096,192.981,14.272,10.913
8130,193.1,14.35,10.946
8163,193.287,14.456,11.026
8196,193.551,14.583,11.102
8230,193.482,14.469,10.977
8263,191.548,13.49,10.124
8296,189.218,13.105,10.13
8329,188.262,12.971,10.182
8363,188.806,13.241,10.439
8396,189.547,13.528,10.659
8429,190.308,13.792,10.821
8463,190.839,13.913,10.879
8496,191.308,13.996,10.909
8529,191.231,13.849,10.733
8563,190.61,13.491,10.38
8596,190.303,13.369,10.266
8629,190.432,13.481,10.388
8663,190.735,13.648,10.551
8696,191.226,13.875,10.728
8729,191.65,13.97,10.803
8763,191.849,14.013,10.782
8796,192.264,14.174,10.901
8829,192.575,14.235,10.911
8863,192.669,14.181,10.823
8896,192.811,14.232,10.829
8929,192.824,14.189,10.77
8962,192.731,14.11,10.672
8996,192.864,14.289,10.806
9029,192.87,14.36,10.837
9062,192.959,14.438,10.873
9096,193.237,14.561,10.975
9129,192.602,14.121,10.536
9162,190.87,13.4,9.98
9196,189.629,13.144,9.889
9229,189.984,13.594,10.386
9262,190.864,14.1,10.854
9296,191.659,14.472,11.158
9329,192.142,14.572,11.205
9362,192.42,14.506,11.116
9396,192.312,14.252,10.851
9429,191.851,13.953,10.554
9462,191.032,13.572,10.211
9496,190.9,13.7,10.365
9529,191.098,13.932,10.604
9562,191.417,14.088,10.743
9595,191.787,14.234,10.871
9629,192.136,14.386,10.971
9662,192.248,14.405,10.944
9695,192.258,14.403,10.898
9729,192.259,14.509,10.936
9762,192.013,14.521,10.906
9795,191.506,14.311,10.685
9829,189.926,13.432,9.953
9862,189.141,13.289,9.888
9895,189.608,13.912,10.469
9929,190.014,14.266,10.778
9962,189.617,14.06,10.556
9995,187.852,13.195,9.814
10029,185.724,12.872,9.815
10062,184.749,12.872,9.983
10095,185.173,13.215,10.299
10129,186.138,13.721,10.744
10162,187.089,14.118,11.061
10195,187.755,14.294,11.159
10228,188.184,14.304,11.145
10262,188.083,14.111,10.913
10295,187.355,13.631,10.472
10328,186.897,13.356,10.254
10362,187.029,13.461,10.399
10395,187.308,13.562,10.523
10428,187.941,13.878,10.815
10462,187.899,13.712,10.623
10495,188.245,13.879,10.747
10528,189.073,14.376,11.12
10562,189.327,14.352,11.06
10595,189.161,14.178,10.861
10628,189.104,14.14,10.788
10662,189.278,14.292,10.875
10695,189.655,14.486,11.016
10728,189.51,14.324,10.845
10762,189.726,14.48,10.959
10795,190.006,14.538,10.977
10828,188.951,13.772,10.279
10861,186.73,13.138,9.973
10895,185.349,12.945,10.006
10928,185.312,13.035,10.128
10961,186.354,13.513,10.554
10995,187.244,13.779,10.763
11028,187.842,13.895,10.818
11061,188.253,13.962,10.831
11095,188.106,13.762,10.595
11128,187.628,13.474,10.306
11161,187.223,13.338,10.203
11195,187.205,13.387,10.286
11228,187.616,13.603,10.513
11261,187.968,13.738,10.608
11295,188.319,13.837,10.68
11328,188.633,13.853,10.67
11361,188.97,13.918,10.695
11395,189.217,13.998,10.711
11428,189.402,13.967,10.66
11461,189.535,13.911,10.587
11495,189.551,13.889,10.547
11528,189.566,13.881,10.516
11561,189.803,13.969,10.574
11594,190.128,14.147,10.695
11628,189.933,14.04,10.552
11661,187.73,13.053,9.779
11694,185.317,12.718,9.858
11728,184.672,12.611,9.896
11761,185.119,12.785,10.05
11794,186.077,13.092,10.293
11828,186.765,13.258,10.39
11861,187.255,13.369,10.456
11894,187.347,13.349,10.395
11928,187.166,13.223,10.234
11961,186.652,13.04,10.048
11994,186.221,13.015,9.999
12028,185.89,13.065,10.044
12061,186.088,13.324,10.299
12094,186.497,13.574,10.516
12128,186.848,13.683,10.588
12161,187.222,13.703,10.6
12194,187.482,13.752,10.587
12227,187.669,13.743,10.552
12261,187.891,13.785,10.56
12294,187.972,13.842,10.576
12327,187.926,13.836,10.54
12361,188.138,13.91,10.571
12394,188.19,13.884,10.532
12427,188.271,13.903,10.541
12461,188.539,14.052,10.655
12494,188.822,14.133,10.696
12527,188.413,13.786,10.353
12561,185.996,12.825,9.717
12594,183.678,12.542,9.781
12627,182.957,12.48,9.852
12661,183.35,12.637,9.987
12694,184.234,12.923,10.203
12727,184.905,13.15,10.333
12761,185.186,13.221,10.341
12794,185.196,13.206,10.3
12827,184.919,13.08,10.187
12860,184.422,12.882,10.004
12894,184.317,12.862,10.008
12927,184.553,12.975,10.109
12960,184.988,13.177,10.285
12994,185.416,13.356,10.412
13027,185.782,13.45,10.451
13060,186.11,13.483,10.454
13094,186.284,13.515,10.437
13127,186.416,13.558,10.441
13159,186.616,13.603,10.459
13194,186.759,13.616,10.435
13227,186.747,13.526,10.332
13260,186.857,13.558,10.345
13294,187.019,13.59,10.354
13327,187.318,13.754,10.466
13360,187.492,13.848,10.516
13394,187.625,13.839,10.479
13427,185.9,12.894,9.687
13460,183.082,12.459,9.675
13493,181.93,12.288,9.734
13527,182.079,12.37,9.829
13560,182.836,12.6,10.026
13593,183.523,12.784,10.138
13627,183.973,12.919,10.182
13659,184.17,12.999,10.2
13693,184.102,12.949,10.108
13727,183.802,12.803,9.983
13760,183.458,12.635,9.831
13793,183.486,12.658,9.855
13827,183.853,12.879,10.053
13860,184.165,13.049,10.167
13892,184.541,13.163,10.245
13927,185.034,13.263,10.293
13960,185.158,13.208,10.206
13993,185.268,13.239,10.194
14027,185.479,13.287,10.201
14060,185.534,13.294,10.175
14093,185.517,13.272,10.133
14125,185.69,13.323,10.16
14159,185.82,13.341,10.158
14193,185.831,13.318,10.096
14226,186.066,13.436,10.189
14260,186.252,13.523,10.242
14293,186.54,13.608,10.297
14326,186.946,13.752,10.394
14360,185.957,13.111,9.779
14392,182.954,12.422,9.511
14426,181.041,12.159,9.569
14460,180.601,12.071,9.601
14493,180.973,12.172,9.7
14526,181.458,12.267,9.747
14560,181.685,12.248,9.709
14593,181.859,12.325,9.706
14625,181.763,12.284,9.676
14659,181.281,12.04,9.479
14693,180.854,11.895,9.371
14726,180.784,11.879,9.395
14759,180.987,12.054,9.545
14793,181.318,12.19,9.681
14826,181.899,12.361,9.817
14858,182.35,12.457,9.877
14892,182.729,12.55,9.932
14926,182.984,12.57,9.921
14959,183.234,12.617,9.909
14993,183.441,12.648,9.907
15026,183.567,12.619,9.85
15059,183.681,12.642,9.851
15093,183.801,12.714,9.879
15125,183.988,12.789,9.921
15159,184.196,12.882,9.981
15193,184.388,13.055,10.078
15226,184.371,13.032,10.009
15259,184.64,13.122,10.043
15293,184.975,13.217,10.115
15326,183.893,12.534,9.5
15358,181.056,11.821,9.264
15392,179.323,11.486,9.312
15426,178.878,11.367,9.356
15459,179.248,11.437,9.481
15492,179.888,11.535,9.582
15526,180.236,11.648,9.629
15559,180.455,11.749,9.677
15592,180.533,11.758,9.678
15625,180.084,11.605,9.52
15659,179.68,11.478,9.406
15692,179.564,11.452,9.38
15726,179.808,11.694,9.592
15759,180.261,11.862,9.74
15792,180.854,12.076,9.9
15826,181.551,12.184,9.986
15858,182.062,12.233,9.967
15892,182.258,12.31,9.976
15926,182.479,12.316,9.907
15959,182.695,12.35,9.894
15992,182.819,12.386,9.902
16026,182.856,12.36,9.824
16059,183.076,12.385,9.823
16092,183.338,12.481,9.879
16125,183.465,12.574,9.937
16159,183.586,12.593,9.911
16192,183.893,12.669,9.949
16225,184.197,12.773,10.004
16259,184.419,12.919,10.085
16292,183.574,12.588,9.721
16325,180.535,11.877,9.324
16358,178.363,11.636,9.4
16392,177.789,11.624,9.494
16425,178.113,11.775,9.62
16459,178.848,11.974,9.745
16492,179.35,12.098,9.802
16525,179.661,12.19,9.794
16559,179.521,12.243,9.735
16592,178.762,12.365,9.73
16625,178.329,12.588,9.86
16659,178.521,12.949,10.151
16692,178.705,13.115,10.261
16725,178.889,13.337,10.387
16758,179.109,13.842,10.662
16792,179.7,14.77,11.069
16825,180.037,15.515,11.33
16858,179.581,15.732,11.28
16892,179.378,16.343,11.413
16925,179.369,17.459,11.907
16958,179.547,19.487,12.711
16992,178.796,20.384,13.044
17025,177.75,20.346,12.89
17058,176.67,20.069,12.649
17092,175.817,20.043,12.585
17125,175.15,19.986,12.552
17158,174.458,19.795,12.383
17192,174.249,19.974,12.487
17225,173.923,20.035,12.492
17258,173.104,19.961,12.373
17292,170.701,19.22,12.003
17325,167.84,18.795,12.018
17358,165.685,18.435,11.926
17391,164.464,18.348,11.853
17425,163.886,18.454,11.885
17458,163.798,18.527,11.935
17491,163.871,18.714,12.025
17525,163.789,19.066,12.151
17558,163.392,19.251,12.229
17591,162.584,19.169,12.154
17625,161.775,19.206,12.12
17658,161.451,19.5,12.26
17691,161.449,19.557,12.293
17725,161.809,19.908,12.488
17758,162.298,20.575,12.857
17791,162.663,21.258,13.172
17825,162.696,21.516,13.222
17858,162.81,21.781,13.32
17891,163.085,22.209,13.525
17925,163.094,22.522,13.661
17958,162.771,22.252,13.396
17991,162.748,22.143,13.365
18024,162.321,21.518,13.084
18058,162.331,20.959,13.119
18091,163.155,20.795,13.439
18124,163.516,20.489,13.54
18158,162.752,19.992,13.434
18191,161.574,19.446,13.272
18224,161.679,19.816,13.789
18258,162.106,20.45,14.377
18291,162.412,20.905,14.69
18324,163.333,21.412,14.987
18358,163.758,21.635,15.031
18391,163.636,21.61,14.93
18424,163.492,21.613,14.871
18458,163.127,21.446,14.71
18491,162.912,21.517,14.723
18524,163.093,21.873,14.965
18558,163.438,22.19,15.134
18591,163.847,22.445,15.253
18624,163.822,22.3,15.103
18657,163.284,21.854,14.712
18691,163.241,21.966,14.792
18724,163.541,22.404,15.101
18757,163.553,22.726,15.219
18791,163.59,22.983,15.315
18824,163.827,23.237,15.413
18857,164.155,23.495,15.503
18891,164.349,23.671,15.51
18924,164.623,23.916,15.56
18957,165.01,24.22,15.671
18991,164.139,23.667,15.144
19024,162.356,22.761,14.577
19057,160.966,22.409,14.51
19091,160.456,22.472,14.575
19124,161.193,23.141,15.037
19157,161.666,23.399,15.183
19191,161.701,23.379,15.116
19224,161.836,23.484,15.113
19257,161.881,23.613,15.151
19290,161.479,23.304,14.88
19324,161.221,23.095,14.723
19357,161.284,23.047,14.748
19390,161.235,22.519,14.445
19424,162.247,22.3,14.469
19457,163.596,22.06,14.459
19490,164.544,22.134,14.573
19524,165.451,22.434,14.765
19557,165.79,22.366,14.623
19590,165.709,22.276,14.478
19624,165.544,22.256,14.392
19657,165.38,22.224,14.289
19690,165.406,22.413,14.377
19724,165.397,22.723,14.525
19757,165.055,22.861,14.477
19790,164.93,23.056,14.507
19824,165.156,23.423,14.695
19857,165.347,23.626,14.766
19890,164.662,23.284,14.352
19924,163.227,22.729,13.854
19957,161.777,22.415,13.685
19990,161.127,22.366,13.721
20023,161.742,22.927,14.239
20057,162.501,23.27,14.524
20090,162.897,23.295,14.516
20123,163.403,23.511,14.651
20190,163.324,23.12,14.311
20223,163.066,22.905,14.169
20257,162.989,22.828,14.152
20290,162.881,22.754,14.141
20323,163.084,22.854,14.235
20357,163.417,22.917,14.304
20390,163.505,22.928,14.298
20423,163.724,23.032,14.359
20457,163.93,23.112,14.401
20490,164.053,23.076,14.355
20523,164.247,23.047,14.341
20557,164.391,23.041,14.352
20590,164.811,23.202,14.489
20623,164.946,23.163,14.428
20656,165.158,23.25,14.467
20690,165.288,23.309,14.487
20723,165.544,23.352,14.531
20756,165.778,23.453,14.583
20790,166.112,23.551,14.644
20823,164.839,22.667,13.915
20856,163.391,22.056,13.563
20890,163.188,22.208,13.797
20923,163.405,22.536,14.104
20956,163.94,22.992,14.463
20990,164.608,23.268,14.647
21023,165.369,23.607,14.863
21056,165.62,23.65,14.824
21090,165.401,23.41,14.565
21123,165.195,23.312,14.491
21156,164.88,23.195,14.395
21190,164.785,23.048,14.348
21223,164.975,23.111,14.437
21256,165.46,23.31,14.614
21289,165.988,23.607,14.817
21323,166.178,23.616,14.781
21356,166.598,23.841,14.905
21389,166.812,23.846,14.88
21423,166.807,23.667,14.754
21456,166.827,23.629,14.722
21489,167.178,24.024,15.012
21523,167.203,24.156,15.013
21556,167.245,24.077,14.943
21589,167.472,24.1,14.967
21623,167.529,24.121,14.966
21656,167.799,24.299,15.086
21689,168.169,24.406,15.138
21723,168.538,24.401,15.146
21756,167.754,23.812,14.651
21789,165.777,22.787,14.103
21823,164.565,22.386,14.062
21856,164.607,22.601,14.284
21889,165.378,23.133,14.727
21922,165.673,23.369,14.868
21956,165.949,23.558,14.972
21989,165.974,23.528,14.892
22022,166.093,23.608,14.942
22056,165.673,23.243,14.655
22089,165.317,22.917,14.453
22122,165.376,22.901,14.535
22156,165.409,22.893,14.579
22189,165.561,23.027,14.707
22222,165.883,23.157,14.803
22256,166.481,23.402,14.997
22289,166.455,23.271,14.846
22322,166.565,23.341,14.862
22356,166.791,23.492,14.945
22389,166.801,23.377,14.842
22422,166.776,23.388,14.817
22456,166.947,23.534,14.904
22489,166.79,23.427,14.807
22522,166.693,23.401,14.763
22555,166.798,23.511,14.861
22589,167.176,23.375,14.862
22622,167.448,23.141,14.763
22655,167.987,23.281,14.926
22689,168.731,23.522,15.138
22722,168.161,22.888,14.631
22755,166.314,21.819,13.963
22789,165.271,21.507,13.904
22822,165.569,21.998,14.362
22855,166.169,22.487,14.767
22889,166.701,22.753,14.955
22922,166.995,22.878,15.017
22955,167.057,22.936,14.979
22989,167.15,22.94,14.961
23022,167.017,22.693,14.781
23055,166.866,22.605,14.746
23089,166.695,22.511,14.706
23122,167.095,22.625,14.876
23155,167.655,22.746,15.0
23188,167.708,22.481,14.807
23222,168.013,22.582,14.878
23255,168.546,22.87,15.088
23288,168.745,22.94,15.083
23322,168.753,23.013,15.058
23355,169.016,23.224,15.161
23388,169.135,23.25,15.142
23422,169.111,23.219,15.082
23455,169.097,23.284,15.101
23488,169.045,23.233,15.048
23522,168.928,23.157,14.953
23555,169.093,23.31,15.057
23588,169.286,23.443,15.134
23622,169.688,23.518,15.191
23655,169.565,23.365,15.032
23688,167.738,22.273,14.252
23722,166.261,21.718,14.09
23755,165.727,21.688,14.169
23788,166.195,22.161,14.603
23821,166.117,22.148,14.598
23855,165.917,22.037,14.476
23888,165.885,22.121,14.541
23921,165.79,22.217,14.572
23955,165.396,21.99,14.379
23988,165.223,21.869,14.314
24021,165.376,21.985,14.439
24055,165.401,21.867,14.394
24088,165.738,22.021,14.528
24121,166.096,22.137,14.614
24155,166.153,21.985,14.499
24188,166.335,21.963,14.47
24221,166.738,22.082,14.57
24255,166.775,21.842,14.367
24288,166.595,21.662,14.22
24321,166.646,21.794,14.348
24355,166.412,21.744,14.29
24388,166.089,21.587,14.161
24421,166.651,22.031,14.535
24455,166.802,22.049,14.518
24488,167.132,22.178,14.618
24521,167.926,22.468,14.843
24554,168.255,22.277,14.664
24588,167.349,21.326,13.909
24621,165.893,20.437,13.362
24654,165.156,20.123,13.274
24688,165.474,20.288,13.527
24721,166.207,20.766,13.946
24754,166.821,21.162,14.246
24788,166.62,21.014,14.044
24821,166.885,21.207,14.177
24854,166.737,21.046,14.022
24888,166.328,20.853,13.863
24921,166.167,20.761,13.837
24954,166.06,20.716,13.847
24988,166.209,20.877,13.999
25021,166.481,21.053,14.15
25054,166.748,21.137,14.208
25088,166.679,21.027,14.091
25121,167.062,21.401,14.355
25154,167.291,21.564,14.416
25187,167.382,21.542,14.336
25221,167.516,21.586,14.371
25254,167.564,21.595,14.359
25287,167.854,21.67,14.418
25321,168.045,21.677,14.424
25354,168.155,21.808,14.483
25387,168.288,21.943,14.57
25421,168.474,22.08,14.649
25454,168.553,22.105,14.619
25487,168.233,21.984,14.466
25521,166.877,21.198,13.862
25554,165.481,20.616,13.554
25587,165.155,20.679,13.707
25621,165.557,21.146,14.178
25654,165.766,21.344,14.332
25687,165.85,21.328,14.316
25721,166.138,21.357,14.347
25754,166.504,21.48,14.433
25787,166.316,21.124,14.137
25820,165.827,20.614,13.747
25854,166.028,20.704,13.909
25887,166.327,21.131,14.267
25920,166.086,21.362,14.402
25954,166.007,21.474,14.457
25987,165.906,21.354,14.357
26020,165.876,21.475,14.423
26054,166.011,21.653,14.536
26087,165.961,21.609,14.474
26120,165.82,21.503,14.374
26154,166.045,21.564,14.448
26187,166.24,21.568,14.451
26220,166.539,21.647,14.504
26254,166.896,21.704,14.577
26287,167.166,21.766,14.592
26320,167.383,21.642,14.529
26354,167.687,21.58,14.488
26387,167.639,21.431,14.37
26420,166.277,20.51,13.684
26453,165.555,20.328,13.668
26487,165.464,20.656,14.03
26520,165.909,20.996,14.371
26553,166.286,21.245,14.559
26587,166.299,21.328,14.54
26620,166.486,21.619,14.724
26653,166.695,21.658,14.717
26687,166.634,21.501,14.569
26720,166.583,21.392,14.496
26753,166.485,21.221,14.397
26787,166.676,21.166,14.414
26820,166.998,21.206,14.477
26853,167.349,21.473,14.697
26887,167.648,21.594,14.746
26920,167.929,21.631,14.746
26953,168.364,21.816,14.866
26987,168.837,22.045,14.987
27020,168.704,21.861,14.776
27053,168.403,21.518,14.481
27086,168.578,21.507,14.506
27120,168.839,21.649,14.615
27153,169.013,21.659,14.63
27186,169.515,21.899,14.802
27220,169.521,21.763,14.648
27253,168.8,21.289,14.257
27286,167.665,20.657,13.835
27320,166.771,20.282,13.686
27353,166.716,20.544,14.015
27386,167.133,20.97,14.405
27420,167.644,21.313,14.672
27453,167.986,21.419,14.725
27486,168.166,21.411,14.669
27520,168.205,21.362,14.599
27553,168.035,21.313,14.522
27586,167.703,21.342,14.51
27620,167.47,21.798,14.741
27653,166.922,22.158,14.872
27686,166.472,22.266,14.853
27719,166.703,22.672,15.128
27753,166.715,22.707,15.104
27786,166.818,22.679,15.079
27819,167.159,22.732,15.106
27853,167.424,22.794,15.155
27886,167.528,22.767,15.126
27919,167.752,22.755,15.146
27953,168.113,22.887,15.236
27986,168.211,22.865,15.185
28019,167.811,22.458,14.867
28053,166.728,21.711,14.386
28086,165.729,21.222,14.157
28119,165.269,21.176,14.243
28153,165.509,21.527,14.614
28186,166.101,21.91,14.94
28219,166.426,22.038,14.994
28253,166.91,22.283,15.127
28286,166.863,22.069,14.903
28319,166.534,21.771,14.648
28353,166.14,21.51,14.468
28386,165.942,21.38,14.429
28419,166.242,21.504,14.589
28452,166.442,21.531,14.63
28486,166.581,21.556,14.641
28519,167.026,21.781,14.796
28552,167.336,21.858,14.802
28586,167.587,21.955,14.827
28619,167.882,22.155,14.906
28652,168.197,22.331,14.983
28686,168.247,22.216,14.85
28719,168.143,22.042,14.7
28752,167.126,21.336,14.182
28786,166.123,20.928,13.986
28819,165.761,21.039,14.156
28852,166.088,21.472,14.559
28886,166.605,21.738,14.782
28919,167.281,22.056,15.005
28952,167.866,22.28,15.125
28986,168.1,22.247,15.045
29019,168.173,22.143,14.922
29052,167.938,21.887,14.725
29085,167.761,21.797,14.667
29119,167.854,21.85,14.735
29152,168.235,22.09,14.919
29185,168.596,22.271,15.006
29219,168.783,22.258,14.973
29252,168.997,22.327,14.955
29284,169.49,22.648,15.165
29319,169.696,22.664,15.122
29352,169.708,22.576,15.009
29385,169.573,22.501,14.915
29419,168.473,21.782,14.387
29452,167.19,21.149,14.037
29485,166.79,21.281,14.241
29519,167.18,21.79,14.709
29552,167.626,22.096,14.933
29585,168.218,22.435,15.147
29619,168.683,22.697,15.27
29652,168.753,22.715,15.191
29685,168.405,22.621,15.002
29718,168.356,23.139,15.253
29752,168.047,23.618,15.433
29784,167.821,24.036,15.558
29818,167.921,24.683,15.85
29852,168.23,25.725,16.31
29885,168.16,26.616,16.588
29918,168.071,26.977,16.618
29952,168.034,27.245,16.635
29985,168.082,27.525,16.72
30017,168.166,27.588,16.677
30052,168.115,27.664,16.66
30085,168.123,27.889,16.738
30118,168.367,28.153,16.85
30152,167.756,27.692,16.447
30185,166.573,27.116,15.98
30218,165.765,26.903,15.882
30252,165.804,26.738,15.882
30284,166.532,26.938,16.116
30318,167.379,27.616,16.547
30351,167.884,28.594,16.966
30385,168.442,30.146,17.428
30418,169.434,32.515,18.042
30451,171.602,36.037,18.867
30485,173.389,38.709,19.623
30517,173.285,38.681,19.645
30551,172.649,38.002,19.508
30585,172.739,38.398,19.624
30618,173.384,39.409,19.967
30651,173.593,39.838,20.091
30685,173.714,40.346,20.202
30718,174.525,41.779,20.681
30750,175.115,42.716,21.016
30784,175.675,43.484,21.244
30818,175.918,43.768,21.337
30851,175.98,43.873,21.382
30885,175.824,43.707,21.314
30918,175.617,43.303,21.135
30951,175.436,43.106,21.027
30983,176.426,44.447,21.643
31017,177.24,45.598,22.099
31051,177.206,45.235,21.859
31084,177.295,45.055,21.718
31118,177.066,44.564,21.478
31151,175.731,43.082,20.744
31184,174.188,41.601,20.301
31218,173.54,41.031,20.183
31250,173.779,41.256,20.342
31284,173.874,40.876,20.266
31318,173.728,40.292,20.049
31351,173.528,39.464,19.675
31384,173.349,39.212,19.621
31418,173.516,39.485,19.835
31451,173.376,39.202,19.714
31483,173.009,38.629,19.435
31517,173.029,38.553,19.456
31551,173.215,38.663,19.54
31584,173.243,38.557,19.476
31617,173.616,38.843,19.667
31651,173.817,38.804,19.623
31684,173.741,38.385,19.346
31717,173.832,38.504,19.443
31750,174.15,38.797,19.649
31784,174.039,38.669,19.511
31817,174.059,38.748,19.542
31851,174.367,39.191,19.804
31884,174.352,39.06,19.656
31917,174.525,39.244,19.768
31951,174.995,39.791,20.078
31983,174.975,39.798,19.977
32017,174.933,39.736,19.879
32051,175.336,40.219,20.153
32084,175.548,40.647,20.308
32117,175.915,41.236,20.543
32151,176.017,41.34,20.469
32184,176.044,41.515,20.482
32217,175.852,41.64,20.408
32250,174.203,40.265,19.527
32284,173.229,39.485,19.272
32317,173.587,40.089,19.704
32350,174.374,40.889,20.2
32384,174.966,41.572,20.51
32417,175.514,42.318,20.816
32450,175.725,42.482,20.828
32483,175.734,42.64,20.817
32517,175.793,42.913,20.9
32550,175.548,42.764,20.749
32584,175.093,42.228,20.399
32617,175.165,42.21,20.459
32650,175.208,42.221,20.497
32684,175.356,42.268,20.554
32717,175.458,42.254,20.558
32750,175.493,42.293,20.613
32784,175.728,42.618,20.808
32817,175.872,42.659,20.814
32850,175.365,42.043,20.375
32884,175.15,41.959,20.385
32917,175.408,42.239,20.633
32950,175.447,42.266,20.642
32983,175.402,42.093,20.531
33017,175.365,41.852,20.42
33050,175.388,41.712,20.358
33083,175.602,41.909,20.529
33117,176.009,42.291,20.79
33150,175.836,41.819,20.419
33183,175.763,41.764,20.411
33217,176.439,42.759,21.032
33250,176.189,42.575,20.799
33283,174.968,41.525,20.037
33317,174.088,41.052,19.814
33350,173.673,40.87,19.803
33383,173.913,41.137,20.13
33417,174.798,42.135,20.8
33450,175.433,42.988,21.158
33483,175.935,43.787,21.385
33517,176.273,44.257,21.477
33550,176.402,44.778,21.616
33583,175.952,44.41,21.281
33616,175.582,44.038,21.002
33650,175.691,44.181,21.126
33683,176.125,44.735,21.467
33716,176.684,45.412,21.809
33750,177.058,45.838,21.932
33783,177.234,45.984,21.905
33816,177.622,46.558,22.139
33850,178.152,47.381,22.474
33883,178.441,47.78,22.539
33916,178.487,47.867,22.449
33950,178.316,47.717,22.275
33983,178.481,47.97,22.41
34016,178.993,48.56,22.74
34050,179.061,48.549,22.623
34083,178.863,48.28,22.403
34116,178.851,48.137,22.315
34150,178.717,47.858,22.176
34183,178.599,47.509,22.006
34216,178.819,47.628,22.18
34249,178.084,46.625,21.535
34283,176.831,45.477,21.124
34316,176.116,44.965,21.057
34349,176.106,44.987,21.214
34383,176.456,45.323,21.498
34416,176.864,45.633,21.68
34449,176.918,45.549,21.627
34483,177.123,45.582,21.643
34516,176.701,44.983,21.238
34549,176.389,44.618,21.035
34583,176.482,44.842,21.267
34616,176.399,44.707,21.209
34649,176.121,44.153,20.912
34683,176.492,44.415,21.189
34716,176.864,44.661,21.377
34749,177.103,44.719,21.376
34783,177.502,45.047,21.57
34816,177.778,45.544,21.775
34849,177.921,45.87,21.852
34882,178.05,46.083,21.884
34916,177.951,45.934,21.683
34949,177.718,45.645,21.482
34982,177.901,45.848,21.649
35016,178.161,46.187,21.842
35049,178.032,46.02,21.672
35082,178.327,46.337,21.88
35116,178.563,46.659,22.023
35149,178.577,46.75,21.997
35182,178.761,46.93,22.052
35216,178.709,46.761,21.891
35249,177.888,45.909,21.284
35282,176.728,45.043,20.883
35316,176.17,44.794,20.907
35349,176.142,44.994,21.154
35382,176.61,45.374,21.461
35416,177.094,45.888,21.758
35449,177.195,46.167,21.845
35482,177.282,46.336,21.897
35515,177.151,46.372,21.848
35549,176.896,46.287,21.747
35582,176.632,46.359,21.78
35615,176.53,46.397,21.806
35649,176.437,46.455,21.856
35682,176.612,46.709,22.028
35715,176.847,46.953,22.145
35749,176.994,47.105,22.194
35782,177.054,47.268,22.238
35815,177.343,47.674,22.463
35849,177.458,47.651,22.369
35882,177.218,47.357,22.125
35915,177.225,47.468,22.204
35949,177.417,47.785,22.403
35982,177.437,47.892,22.413
36015,177.402,47.819,22.327
36049,177.421,47.773,22.305
36082,177.407,47.52,22.151
36115,177.679,47.565,22.235
36148,178.029,48.007,22.508
36182,178.272,48.419,22.714
36215,178.473,48.707,22.797
36248,178.238,48.229,22.408
36282,177.254,47.352,21.795
36315,176.219,46.617,21.531
36348,175.564,45.849,21.316
36382,175.877,46.248,21.651
36415,176.292,46.713,21.995
36448,176.507,46.865,22.08
36482,176.756,47.14,22.212
36515,176.986,47.436,22.336
36548,176.745,47.055,22.019
36582,176.488,46.696,21.797
36615,176.495,46.78,21.886
36648,176.569,46.948,22.012
36682,176.588,47.021,22.04
36715,176.833,47.338,22.238
36748,177.023,47.559,22.349
36782,177.166,47.668,22.359
36815,177.291,47.783,22.384
36848,177.479,47.987,22.472
36881,177.579,48.065,22.476
36915,177.565,47.942,22.348
36948,177.552,47.977,22.363
36981,177.509,47.868,22.287
37015,177.562,47.818,22.274
37048,177.614,47.844,22.303
37081,177.554,47.606,22.166
37115,177.63,47.529,22.158
37148,177.799,47.703,22.294
37181,177.79,47.67,22.269
37215,177.958,47.721,22.295
37248,178.126,47.727,22.29
37281,177.077,46.627,21.562
37315,175.745,45.293,21.152
37348,175.288,44.848,21.129
37381,175.532,44.813,21.226
37415,176.225,45.556,21.664
37448,176.487,45.802,21.797
37481,176.349,45.452,21.558
37514,176.639,45.54,21.625
37548,176.767,45.636,21.64
37581,176.572,45.498,21.518
37614,176.064,44.847,21.109
37648,175.842,44.389,20.923
37681,175.987,44.204,20.94
37714,176.088,43.692,20.711
37748,176.858,44.15,21.129
37781,177.309,44.673,21.402
37814,177.403,44.615,21.285
37848,177.388,44.053,20.887
37881,177.475,43.767,20.771
37914,177.76,43.85,20.88
37948,177.771,43.844,20.86
37981,177.612,43.701,20.768
38014,177.682,43.898,20.926
38048,177.928,44.206,21.111
38081,178.073,44.453,21.216
38114,178.149,44.654,21.277
38147,178.407,45.034,21.472
38181,178.465,45.148,21.466
38214,178.24,44.98,21.27
38247,177.305,44.323,20.777
38281,176.239,43.727,20.463
38314,176.016,43.836,20.661
38347,176.17,44.063,20.897
38381,176.385,44.281,21.077
38414,176.742,44.583,21.261
38447,176.927,44.822,21.393
38481,176.85,44.965,21.41
38514,176.792,45.193,21.496
38547,176.369,44.971,21.259
38581,176.013,44.763,21.126
38614,176.154,45.044,21.361
38647,176.362,45.201,21.468
38681,176.454,45.168,21.437
38714,176.855,45.582,21.68
38747,176.882,45.559,21.586
38780,176.687,45.215,21.322
38814,176.77,44.999,21.229
38847,176.951,45.004,21.251
38880,177.034,45.103,21.33
38914,176.963,45.026,21.269
38947,176.952,45.031,21.275
38980,176.931,45.031,21.283
39014,177.036,45.171,21.358
39047,177.231,45.581,21.59
39080,177.263,45.729,21.62
39114,177.182,45.653,21.543
39147,176.866,45.141,21.188
39180,175.899,44.373,20.722
39214,175.162,44.205,20.705
39247,174.737,43.965,20.649
39280,175.032,44.227,20.965
39314,175.319,44.384,21.106
39347,175.675,44.73,21.342
39380,175.972,44.965,21.443
39413,175.926,44.691,21.21
39447,175.703,44.439,21.046
39480,175.552,44.333,20.991
39513,175.276,44.164,20.872
39547,175.164,44.114,20.893
39580,175.169,43.905,20.804
39613,175.49,44.167,21.029
39647,175.918,44.627,21.286
39680,175.955,44.668,21.246
39713,175.982,44.732,21.249
39747,176.29,45.094,21.433
39780,176.328,45.122,21.377
39813,176.267,44.899,21.21
39847,176.263,44.765,21.135
39880,176.428,45.027,21.316
39913,176.564,45.256,21.436
39947,176.531,45.217,21.347
39980,176.454,45.083,21.249
40013,176.561,45.303,21.397
40047,176.566,45.418,21.448
40080,176.578,45.523,21.509
40113,175.998,44.856,21.038
40146,175.003,44.016,20.583
40180,174.327,43.532,20.414
40213,174.335,43.575,20.6
40246,174.766,43.922,20.938
40280,175.215,44.211,21.149
40313,175.693,44.635,21.371
40346,175.944,44.973,21.505
40380,175.893,44.917,21.356
40413,175.214,44.156,20.817
40446,174.797,43.669,20.576
40480,174.749,43.635,20.686
40513,175.019,43.81,20.892
40546,175.444,44.26,21.213
40580,175.74,44.54,21.34
40613,175.88,44.776,21.407
40646,176.215,45.136,21.55
40680,176.193,45.019,21.385
40713,176.51,45.328,21.539
40746,176.473,45.23,21.394
40779,176.513,45.333,21.445
40813,176.599,45.535,21.545
40846,176.551,45.509,21.478
40879,176.486,45.386,21.394
40913,176.363,45.185,21.28
40946,176.622,45.353,21.437
40979,176.794,45.437,21.476
41013,176.478,45.016,21.138
41046,175.204,44.041,20.553
41079,174.402,43.676,20.463
41113,174.196,43.553,20.523
41146,174.508,43.798,20.807
41179,174.97,44.164,21.093
41213,175.004,44.163,21.053
41246,175.208,44.404,21.212
41279,175.424,44.606,21.292
41313,175.223,44.434,21.119
41346,174.919,44.194,20.942
41379,174.744,43.873,20.775
41412,174.813,43.913,20.884
41446,175.155,44.41,21.236
41479,175.193,44.413,21.189
41512,175.395,44.518,21.252
41546,175.562,44.665,21.298
41579,175.614,44.713,21.28
41612,175.701,44.697,21.238
41646,175.75,44.7,21.225
41679,175.653,44.56,21.113
41712,175.618,44.524,21.105
41746,175.675,44.626,21.159
41779,175.634,44.736,21.199
41812,175.737,44.853,21.272
41846,175.864,44.931,21.316
41879,176.023,44.985,21.34
41912,176.053,45.007,21.313
41946,175.524,44.524,20.93
41979,174.346,43.642,20.421
42012,173.613,43.242,20.311
42045,173.586,43.376,20.533
42079,174.028,43.836,20.917
42112,174.188,44.082,21.092
42145,174.434,44.443,21.262
42179,174.702,44.894,21.496
42212,174.511,44.818,21.332
42245,174.137,44.617,21.132
42279,173.958,44.611,21.117
42312,174.197,45.02,21.384
42345,174.161,44.964,21.31
42379,174.323,45.142,21.408
42412,174.648,45.477,21.589
42445,174.893,45.634,21.613
42479,174.903,45.519,21.461
42512,174.943,45.497,21.41
42545,175.035,45.636,21.493
42579,175.098,45.881,21.595
42612,175.021,45.89,21.555
42645,175.091,46.049,21.652
42678,175.122,46.162,21.679
42712,175.097,46.309,21.758
42745,175.134,46.5,21.841
42778,175.11,46.411,21.737
42812,175.352,46.659,21.89
42845,175.329,46.728,21.842
42878,174.258,45.858,21.203
42912,172.943,45.013,20.768
42945,172.669,45.202,20.998
42978,172.876,45.574,21.316
43012,173.326,45.894,21.54
43045,173.813,46.416,21.855
43078,174.428,46.922,22.121
43112,174.35,46.481,21.749
43145,174.007,45.84,21.321
43178,173.678,45.368,21.066
43212,173.836,45.387,21.189
43245,173.953,45.388,21.26
43278,173.963,45.265,21.188
43311,174.35,45.515,21.402
43345,174.724,45.713,21.515
43378,175.015,45.881,21.586
43411,175.331,45.989,21.628
43445,175.661,45.991,21.614
43478,175.87,46.17,21.702
43511,175.969,46.315,21.741
43545,176.068,46.273,21.695
43578,176.111,46.259,21.672
43611,176.289,46.387,21.746
43645,176.359,46.458,21.759
43678,175.543,45.67,21.169
43711,174.757,45.081,20.87
43745,174.534,45.077,20.989
43778,174.752,45.47,21.359
43811,175.167,45.901,21.671
43845,175.453,46.237,21.847
43878,175.781,46.559,22.003
43911,175.836,46.433,21.857
43944,175.683,46.165,21.652
43978,175.34,45.787,21.396
44011,175.139,45.694,21.397
44044,175.25,45.881,21.56
44078,175.413,45.995,21.645
44111,175.656,46.18,21.763
44144,175.987,46.463,21.939
44178,176.34,46.844,22.109
44211,176.387,46.82,21.995
44244,176.421,46.75,21.908
44278,175.865,45.857,21.302
44311,175.544,45.534,21.19
44344,175.943,46.182,21.714
44378,176.239,46.607,21.947
44411,176.211,46.469,21.801
44444,175.446,45.822,21.294
44478,174.506,45.141,20.927
44511,174.071,44.876,20.883
44544,174.47,45.376,21.329
44578,174.809,45.708,21.589
44611,174.972,45.842,21.649
44644,175.32,46.187,21.827
44677,175.421,46.268,21.795
44711,175.14,45.961,21.543
44744,175.126,46.155,21.653
44777,174.942,45.994,21.51
44811,174.702,45.62,21.275
44844,174.878,45.765,21.44
44877,175.203,46.004,21.618
44911,175.309,46.07,21.632
44944,175.623,46.369,21.798
44977,175.645,46.278,21.689
45011,175.702,46.307,21.692
45044,176.048,46.726,21.941
45077,176.034,46.8,21.9
45111,175.798,46.419,21.621
45144,175.949,46.413,21.661
45177,176.072,46.58,21.78
45211,176.194,46.799,21.889
45244,176.441,47.144,22.092
45277,176.495,47.077,21.977
45310,175.931,46.446,21.485
45344,174.746,45.536,20.956
45377,174.056,45.305,20.93
45409,174.045,45.556,21.222
45444,174.199,45.738,21.415
45477,174.426,45.98,21.591
45510,174.498,46.186,21.699
45544,174.633,46.377,21.801
45577,174.567,46.329,21.711
45610,174.254,46.061,21.505
45644,174.004,45.899,21.422
45677,174.079,46.178,21.629
45710,174.127,46.535,21.84
45744,173.721,46.111,21.479
45777,173.122,45.269,20.912
45810,173.462,45.768,21.367
45844,173.949,46.025,21.531
45877,174.125,45.977,21.445
45909,174.473,46.151,21.59
45943,174.57,46.05,21.493
45977,174.15,45.388,21.063
46010,173.965,45.033,20.905
46043,174.24,45.207,21.123
46077,174.278,45.222,21.133
46110,174.443,45.243,21.152
46142,175.11,45.779,21.526
46177,175.435,46.26,21.771
46210,175.465,46.265,21.678
46243,175.726,46.654,21.891
46277,175.462,46.261,21.559
46310,174.128,45.022,20.776
46343,173.473,44.766,20.738
46377,173.449,44.973,20.973
46409,173.657,45.168,21.162
46443,174.007,45.523,21.385
46477,174.145,45.535,21.349
46510,174.151,45.507,21.295
46543,174.282,45.741,21.425
46576,174.076,45.641,21.299
46610,173.661,45.204,20.982
46642,173.393,45.038,20.947
46676,173.634,45.331,21.205
46710,173.846,45.474,21.312
46743,174.071,45.467,21.295
46776,174.237,45.404,21.225
46810,174.436,45.573,21.298
46843,174.578,45.787,21.393
46875,174.63,45.918,21.415
46909,174.491,45.658,21.19
46943,174.478,45.596,21.183
46976,174.655,45.852,21.361
47010,174.87,46.155,21.529
47043,174.673,45.934,21.312
47076,174.635,45.893,21.288
47110,174.908,46.176,21.475
47142,175.029,46.323,21.558
47176,175.058,46.427,21.586
47209,174.983,46.42,21.53
47243,173.863,45.415,20.798
47276,172.703,44.672,20.527
47309,172.267,44.408,20.527
47343,172.418,44.419,20.688
47375,172.388,43.911,20.434
47409,172.483,43.864,20.505
47443,172.758,44.189,20.762
47476,172.863,44.282,20.799
47509,172.506,43.863,20.495
47543,172.279,43.699,20.428
47576,172.424,43.994,20.661
47608,172.417,44.016,20.642
47642,172.282,43.89,20.531
47676,172.657,44.344,20.842
47709,172.984,44.667,20.99
47743,172.884,44.431,20.755
47776,173.054,44.675,20.9
47809,173.307,44.98,21.043
47842,173.323,45.097,21.05
47875,173.187,44.861,20.827
47909,173.21,44.84,20.824
47942,173.265,44.962,20.927
47976,173.42,45.294,21.119
48009,173.321,45.162,20.973
48042,173.45,45.31,21.081
48076,173.574,45.352,21.084
48108,173.538,45.333,21.044
48142,173.62,45.333,21.048
48176,173.832,45.528,21.176
48209,172.953,44.637,20.517
48242,171.789,43.687,20.105
48276,171.317,43.283,20.022
48309,171.417,43.331,20.189
48342,171.663,43.382,20.312
48375,171.628,42.948,20.112
48409,171.903,42.914,20.199
48442,172.071,42.865,20.203
48476,171.816,42.453,19.941
48509,171.479,42.094,19.773
48542,171.577,42.234,19.944
48575,171.647,42.207,19.96
48608,171.865,42.274,20.024
48642,172.014,42.215,19.995
48675,172.329,42.476,20.169
48709,172.724,42.861,20.401
48742,172.776,42.974,20.373
48775,172.767,43.092,20.372
48809,172.785,43.088,20.34
48842,172.742,43.008,20.266
48875,172.767,43.028,20.285
48909,172.73,42.943,20.233
48942,172.825,42.993,20.279
48975,172.899,42.999,20.285
49009,172.859,42.981,20.283
49042,173.012,43.043,20.327
49075,173.149,43.109,20.351
49108,173.233,43.06,20.318
49142,173.306,43.139,20.368
49175,172.715,42.482,19.868
49208,171.292,41.488,19.333
49242,170.464,41.131,19.301
49275,170.308,41.3,19.507
49308,170.537,41.633,19.801
49342,170.882,42.015,20.046
49375,171.108,42.219,20.138
49408,171.152,42.245,20.096
49442,171.166,42.214,20.058
49475,171.04,42.158,19.969
49508,170.653,41.891,19.762
49542,170.626,41.968,19.837
49575,170.769,42.177,19.964
49608,170.809,42.231,19.995
49642,171.145,42.585,20.192
49675,171.424,42.917,20.343
49708,171.534,43.1,20.399
49742,171.844,43.535,20.605
49775,172.072,43.829,20.703
49808,172.194,43.954,20.713
49841,172.456,44.323,20.842
49875,172.817,44.96,21.121
49908,172.676,44.915,20.966
49941,172.551,44.765,20.795
49975,172.734,44.96,20.887
50008,172.941,45.274,21.067
50041,172.895,45.155,20.938
50075,173.063,45.34,21.037
50108,173.174,45.527,21.098
50141,172.123,44.613,20.397
50175,170.903,43.761,19.999
50208,170.647,43.811,20.172
50241,170.923,44.179,20.515
50275,171.35,44.623,20.825
50308,171.727,44.924,20.981
50341,172.097,45.297,21.157
50375,172.165,45.194,21.01
50408,171.841,44.686,20.632
50441,171.747,44.656,20.648
50474,171.617,44.583,20.611
50508,171.453,44.341,20.513
50541,171.788,44.515,20.716
50574,172.042,44.636,20.797
50608,172.179,44.666,20.802
50641,172.458,44.951,20.967
50674,172.8,45.345,21.171
50708,172.769,45.203,21.018
50741,172.969,45.345,21.108
50774,173.15,45.561,21.207
50808,173.12,45.47,21.091
50841,173.158,45.398,21.035
50874,173.324,45.649,21.203
50908,173.367,45.729,21.227
50941,173.332,45.583,21.103
50974,173.353,45.484,21.028
51008,172.634,44.911,20.597
51041,171.527,44.221,20.238
51074,171.049,44.007,20.249
51107,171.328,44.269,20.567
51141,171.606,44.482,20.765
51174,172.021,44.902,21.039
51207,172.425,45.385,21.287
51241,172.716,45.702,21.382
51274,172.512,45.339,21.04
51307,171.937,44.616,20.562
51341,171.815,44.459,20.543
51374,171.925,44.401,20.602
51407,171.99,44.162,20.498
51441,172.307,44.197,20.572
51474,172.648,44.431,20.744
51507,172.974,44.766,20.918
51541,173.139,44.906,20.928
51574,173.155,44.924,20.875
51607,173.275,45.177,20.995
51641,173.283,45.21,20.964
51674,173.191,45.151,20.902
51707,173.164,45.205,20.933
51740,173.158,45.174,20.915
51774,173.238,45.209,20.946
51807,173.378,45.354,21.045
51840,173.121,45.135,20.855
51874,171.819,43.965,20.182
51907,171.023,43.442,20.009
51940,171.118,43.685,20.305
51974,171.517,44.139,20.658
52007,171.816,44.437,20.865
52040,172.165,44.883,21.108
52074,172.465,45.221,21.237
52107,172.386,45.164,21.103
52140,172.244,45.128,21.022
52174,171.99,44.997,20.91
52207,171.867,44.956,20.901
52240,172.021,45.089,21.021
52274,172.36,45.366,21.185
52307,172.512,45.481,21.221
52340,172.684,45.568,21.219
52373,172.942,45.765,21.308
52407,173.119,45.923,21.357
52440,173.279,46.115,21.428
52473,173.357,46.218,21.428
52507,173.205,46.024,21.252
52540,173.273,46.09,21.31
52573,173.37,46.176,21.346
52607,173.294,46.08,21.265
52640,173.281,46.041,21.251
52673,173.49,46.217,21.38
52707,172.852,45.579,20.897
52740,171.665,44.685,20.416
52773,171.165,44.365,20.386
52807,171.348,44.589,20.683
52840,171.684,44.884,20.953
52873,172.107,45.296,21.237
52907,172.307,45.395,21.245
52940,172.479,45.428,21.223
52973,172.299,45.211,21.03
53007,172.035,45.044,20.921
53040,171.861,44.977,20.908
53073,171.944,45.036,21.0
53106,172.074,45.12,21.065
53140,172.222,45.16,21.098
53173,172.622,45.377,21.231
53206,172.852,45.41,21.226
53240,173.071,45.475,21.23
53273,173.156,45.522,21.234
53306,173.261,45.675,21.312
53340,173.312,45.787,21.333
53373,173.296,45.753,21.264
53406,173.085,45.489,21.072
53440,173.208,45.627,21.192
53473,173.464,45.883,21.363
53506,173.472,45.848,21.321
53540,173.413,45.653,21.171
53573,172.505,44.767,20.577
53606,171.311,43.923,20.234
53640,170.865,43.729,20.265
53673,171.066,43.964,20.521
53706,171.438,44.319,20.814
53739,171.637,44.526,20.922
53773,171.969,44.891,21.13
53806,171.865,44.681,20.929
53839,171.563,44.189,20.574
53873,171.239,43.715,20.297
53906,171.017,43.38,20.18
53939,171.026,43.267,20.196
53973,171.339,43.491,20.431
54006,171.592,43.807,20.643
54039,171.643,43.784,20.579
54073,171.732,43.739,20.551
54106,171.985,43.985,20.692
54139,172.108,44.138,20.749
54173,172.158,44.124,20.695
54206,172.295,44.305,20.784
54239,172.315,44.3,20.755
54273,172.269,44.276,20.711
54306,172.468,44.502,20.878
54339,172.627,44.715,20.975
54372,172.7,44.876,21.015
54406,172.543,44.779,20.898
54439,171.611,44.003,20.333
54472,170.233,42.951,19.901
54506,169.697,42.666,19.898
54539,170.02,43.006,20.222
54572,170.518,43.477,20.55
54606,170.872,43.851,20.751
54639,171.283,44.317,20.961
54672,171.355,44.322,20.887
54706,171.026,43.938,20.557
54739,170.985,43.953,20.569
54772,170.778,43.868,20.51
54806,170.589,43.735,20.445
54839,170.79,43.952,20.623
54872,171.203,44.414,20.918
54906,171.532,44.726,21.046
54939,171.688,44.789,21.013
54972,171.731,44.664,20.888
55005,171.865,44.651,20.859
55039,172.074,44.829,20.964
55072,172.224,45.088,21.089
55105,172.143,45.026,20.99
55139,172.068,44.877,20.865
55172,172.325,45.219,21.103
55205,172.648,45.772,21.407
55239,172.714,45.964,21.406
55272,172.702,45.821,21.26
55305,172.422,45.453,20.979
55339,171.393,44.679,20.473
55372,170.519,44.039,20.221
55405,170.44,43.938,20.32
55439,170.93,44.275,20.679
55472,171.429,44.668,20.961
55505,171.807,44.922,21.111
55539,172.095,45.008,21.115
55572,171.998,44.798,20.915
55605,171.66,44.367,20.628
55638,171.356,43.978,20.431
55672,171.293,43.821,20.419
55705,171.525,43.859,20.564
55738,171.839,43.975,20.672
55772,172.012,43.953,20.682
55805,172.244,43.943,20.684
55838,172.525,44.073,20.773
55872,172.608,43.902,20.648
55905,172.607,43.742,20.534
55938,172.829,43.889,20.668
55972,172.991,44.047,20.738
56005,172.861,43.866,20.599
56038,172.917,43.885,20.621
56072,173.008,43.893,20.646
56105,173.015,43.752,20.561
56138,172.098,42.537,19.828
56172,171.569,41.399,19.509
56205,171.524,40.903,19.459
56238,171.972,41.162,19.775
56271,172.596,41.562,20.11
56305,172.99,41.753,20.219
56338,173.27,42.0,20.307
56371,173.385,42.202,20.352
56405,173.047,41.966,20.096
56438,172.688,41.748,19.94
56471,172.532,41.769,19.955
56505,172.53,41.846,20.019
56538,173.066,42.764,20.538
56571,174.083,45.112,21.378
56605,175.411,48.294,22.337
56638,175.85,49.15,22.549
56671,176.032,49.749,22.673
56705,176.048,49.007,22.408
56738,175.576,47.458,21.794
56771,175.511,47.248,21.685
56805,175.722,47.658,21.859
56838,175.595,47.733,21.934
56871,175.343,47.789,21.932
56905,175.402,48.466,22.179
56938,175.364,48.783,22.288
56971,175.419,48.826,22.274
57004,175.204,48.649,22.151
57038,173.79,47.651,21.577
57071,172.558,47.003,21.239
57104,172.319,47.194,21.39
57138,172.791,47.876,21.822
57171,173.015,48.211,21.985
57204,173.332,48.635,22.205
57238,173.384,48.723,22.163
57271,173.139,48.438,21.919
57304,173.082,48.407,21.894
57338,172.828,48.124,21.689
57371,172.494,47.798,21.508
57404,172.784,48.081,21.773
57438,173.208,48.411,21.987
57471,173.294,48.397,21.931
57504,173.598,48.63,22.038
57538,173.911,48.716,22.068
57571,173.91,48.562,21.936
57604,173.856,48.441,21.842
57637,174.126,48.561,21.928
57671,174.533,48.669,22.031
57704,174.654,48.674,22.024
57737,174.63,48.847,22.091
57771,174.69,49.158,22.251
57804,174.581,49.02,22.126
57837,174.646,49.039,22.144
57871,174.129,48.493,21.755
57904,172.92,47.397,21.17
57937,172.239,46.757,20.971
57971,172.21,46.827,21.141
58004,172.683,47.291,21.547
58037,173.15,47.621,21.756
58071,173.417,47.871,21.89
58104,173.624,48.19,22.023
58137,173.858,48.325,22.031
58171,173.414,47.735,21.606
58204,172.922,47.236,21.289
58237,173.13,47.503,21.568
58270,173.274,47.6,21.655
58304,173.381,47.691,21.708
58337,173.621,47.931,21.837
58370,173.968,48.163,21.965
58404,174.09,48.266,21.968
58437,174.309,48.467,22.051
58470,174.498,48.632,22.112
58504,174.657,48.796,22.174
58537,174.429,48.441,21.877
58570,174.75,48.824,22.156
58604,174.627,48.607,21.968
58637,174.387,48.329,21.78
58670,174.487,48.281,21.798
58704,174.636,48.759,22.113
58737,175.205,49.568,22.599
58770,174.575,48.827,21.972
58804,173.06,47.662,21.377
58837,172.055,46.948,21.131
58870,172.19,47.284,21.451
58903,172.476,47.726,21.775
58937,172.922,48.321,22.096
58970,173.099,48.547,22.166
59003,173.048,48.543,22.086
59037,173.121,48.753,22.163
59070,172.78,48.487,21.928
59103,172.594,48.419,21.876
59137,172.553,48.462,21.907
59170,172.761,48.584,22.018
59203,172.888,48.53,21.943
59237,173.178,48.728,22.072
59270,173.401,48.897,22.141
59303,173.54,48.939,22.143
59337,173.615,49.013,22.188
59370,173.816,49.247,22.315
59403,173.779,49.314,22.312
59437,174.075,49.738,22.565
59470,174.266,49.947,22.646
59503,174.287,50.065,22.663
59536,174.331,50.074,22.62
59570,174.277,49.933,22.501
59603,174.427,50.047,22.555
59636,174.822,50.715,22.953
59670,174.807,50.735,22.865
59703,173.402,49.369,21.918
59736,172.366,48.597,21.666
59770,172.061,48.496,21.763
59803,172.314,48.679,21.974
59836,172.703,48.91,22.155
59870,173.036,49.102,22.283
59903,173.272,49.279,22.377
59936,173.472,49.324,22.393
59970,173.297,49.136,22.241
60003,172.992,48.83,22.026
60036,173.017,48.866,22.114
60070,173.031,48.872,22.138
60103,172.908,48.845,22.113
60136,173.158,49.175,22.341
60169,173.48,49.423,22.472
60203,173.524,49.54,22.491
60236,173.674,49.556,22.48
60269,173.68,49.455,22.374
60303,173.67,49.388,22.333
60336,173.896,49.464,22.417
60369,173.974,49.374,22.366
60403,174.036,49.312,22.351
60436,174.334,49.468,22.494
60469,174.331,49.374,22.429
60503,174.329,49.344,22.408
60536,174.603,49.603,22.602
60569,174.648,49.527,22.526
60603,174.222,48.975,22.117
60636,173.014,48.019,21.591
60669,171.993,47.231,21.333
60703,171.817,47.297,21.489
60736,172.126,47.705,21.823
60769,172.189,47.719,21.816
60803,172.282,47.624,21.784
60836,171.501,46.377,21.048
60869,170.796,45.161,20.511
60902,171.065,45.342,20.803
60936,171.599,46.328,21.432
60969,171.934,47.116,21.831
61002,172.09,47.451,21.926
61036,172.233,47.583,21.912
61069,172.336,47.704,21.916
61102,172.715,47.99,22.054
61136,172.813,47.947,21.977
61169,172.902,47.996,21.975
61202,173.053,48.21,22.079
61236,173.161,48.403,22.15
61269,173.168,48.352,22.1
61302,173.284,48.543,22.208
61336,173.382,48.866,22.361
61369,173.491,49.059,22.431
61402,173.379,49.022,22.338
61436,173.497,49.206,22.427
61469,173.742,49.643,22.653
61502,173.837,49.787,22.677
61534,172.793,48.848,21.954
61569,171.559,47.846,21.503
61602,171.119,47.689,21.533
61635,171.658,48.613,22.187
61669,172.016,49.059,22.442
61702,172.153,49.203,22.476
61735,172.461,49.675,22.697
61769,172.647,49.966,22.79
61802,172.12,49.123,22.147
61835,171.738,48.41,21.753
61869,171.73,48.335,21.808
61902,171.861,48.452,21.929
61935,172.186,48.91,22.222
61969,172.402,49.151,22.312
62002,172.557,49.398,22.398
62034,172.848,49.702,22.523
62069,173.036,49.967,22.632
62102,172.955,49.973,22.564
62135,173.048,50.182,22.645
62168,173.08,50.281,22.684
62202,173.059,50.378,22.696
62235,173.026,50.409,22.685
62267,173.086,50.423,22.692
62302,173.23,50.431,22.681
62335,173.459,50.245,22.579
62368,173.646,49.785,22.269
62402,174.183,50.253,22.597
62435,174.22,50.74,22.874
62468,173.008,50.41,22.562
62502,171.808,49.786,22.241
62534,171.734,50.118,22.586
62568,172.059,50.507,22.907
62602,172.435,50.738,23.044
62635,173.0,51.003,23.196
62668,173.668,51.452,23.406
62702,174.045,51.72,23.496
62735,173.679,51.04,22.95
62767,173.422,50.595,22.664
62801,173.429,50.549,22.712
62835,173.169,50.161,22.505
62868,173.182,49.9,22.448
62901,173.785,50.165,22.705
62935,174.003,50.285,22.778
62968,174.425,50.785,23.067
63000,174.394,50.552,22.844
63034,174.446,50.47,22.768
63068,174.746,50.644,22.873
63101,174.764,50.455,22.695
63135,174.857,50.624,22.849
63168,175.037,51.141,23.181
63201,175.18,51.599,23.428
63235,175.333,51.958,23.588
63267,175.363,52.005,23.563
63301,174.716,51.271,23.027
63335,173.658,50.307,22.497
63368,173.244,49.967,22.432
63401,173.398,49.896,22.541
63434,173.604,49.832,22.573
63468,174.177,50.209,22.886
63500,174.549,50.383,22.98
63534,174.712,50.506,23.021
63568,174.7,50.91,23.219
63601,174.116,50.839,23.071
63634,173.489,50.607,22.885
63668,173.108,50.558,22.924
63701,173.383,51.12,23.378
63733,173.591,51.495,23.597
63767,174.055,51.992,23.84
63801,175.209,53.058,24.402
63834,174.947,53.172,24.293
63868,175.313,54.344,24.858
63901,175.11,54.597,24.835
63934,175.099,54.769,24.872
63968,174.816,54.547,24.696
64000,173.651,53.585,24.086
64034,172.705,52.762,23.735
64067,172.202,52.398,23.71
64101,172.036,52.27,23.781
64134,172.795,52.835,24.298
64167,173.616,53.207,24.564
64201,174.193,53.526,24.688
64233,174.86,53.981,24.893
64267,174.681,53.464,24.473
64301,174.433,53.093,24.203
64334,174.425,53.105,24.226
64367,174.73,53.549,24.511
64401,175.201,54.403,24.99
64434,175.123,54.023,24.643
64467,174.857,53.117,24.011
64500,175.161,53.508,24.346
64534,175.299,53.809,24.537
64567,174.987,53.595,24.35
64601,175.182,54.034,24.613
64634,175.451,54.734,24.978
64667,174.735,54.06,24.407
64701,173.463,52.995,23.801
64733,172.779,52.474,23.665
64767,172.888,52.924,24.069
64800,173.227,53.546,24.517
64834,173.349,53.733,24.622
64867,173.311,53.648,24.54
64900,173.476,53.636,24.531
64934,173.687,53.699,24.566
64967,173.807,53.86,24.687
65000,173.962,54.21,24.918
65034,173.99,54.528,25.081
65067,173.866,54.532,25.039
65100,174.086,54.752,25.155
65134,174.49,55.226,25.441
65167,174.492,55.239,25.321
65200,174.608,55.29,25.319
65233,174.826,55.407,25.376
65267,174.997,55.445,25.363
65300,174.888,55.268,25.237
65334,174.737,55.093,25.127
65367,174.848,55.373,25.339
65400,174.478,55.1,25.099
65433,173.562,54.44,24.658
65467,172.401,53.498,24.273
65500,172.054,53.487,24.377
65533,172.306,53.864,24.716
65567,172.489,54.133,24.899
65600,172.58,54.068,24.838
65633,172.601,54.158,24.866
65667,172.593,54.254,24.906
65700,172.499,54.118,24.792
65733,172.287,54.04,24.745
65767,172.297,54.108,24.807
65800,172.55,54.25,24.92
65833,172.425,53.998,24.742
65867,172.777,54.33,24.982
65900,173.027,54.573,25.1
65933,173.265,54.929,25.268
65967,173.049,54.711,25.028
66000,173.269,54.961,25.202
66033,173.272,54.968,25.146
66066,173.267,55.051,25.163
66100,173.381,55.209,25.239
66133,173.399,55.225,25.218
66166,173.544,55.449,25.328
66200,173.543,55.572,25.355
66233,173.266,55.39,25.178
66266,173.448,55.735,25.393
66300,173.229,55.626,25.267
66333,173.024,55.657,25.25
66366,171.838,54.551,24.577
66400,170.747,53.662,24.307
66433,170.476,53.656,24.43
66466,170.856,54.355,24.928
66500,171.396,54.842,25.209
66533,171.557,54.914,25.184
66566,171.835,55.299,25.349
66600,172.194,55.612,25.5
66633,171.941,55.24,25.183
66666,171.852,55.137,25.112
66699,171.86,55.032,25.059
66733,171.949,54.927,24.997
66766,171.986,55.01,25.052
66799,172.23,55.214,25.182
66833,172.453,55.266,25.173
66866,172.562,55.236,25.098
66899,172.814,55.427,25.211
66933,173.088,55.67,25.335
66966,173.097,55.568,25.21
66999,173.37,55.839,25.367
67033,173.526,55.937,25.37
67066,173.547,55.86,25.299
67099,173.596,55.767,25.221
67133,173.9,56.244,25.534
67166,174.517,57.339,26.12
67199,175.184,58.555,26.601
67233,175.57,59.111,26.742
67266,175.279,58.531,26.386
67299,174.352,57.474,25.835
67332,173.736,56.877,25.58
67366,173.896,57.146,25.822
67399,174.432,57.733,26.221
67432,174.836,58.003,26.349
67466,175.194,58.256,26.458
67499,175.295,58.251,26.392
67532,175.234,58.148,26.287
67566,175.137,57.933,26.162
67599,174.727,57.515,25.902
67632,174.716,57.43,25.912
67666,175.146,57.838,26.229
67699,175.516,58.299,26.498
67732,175.565,58.34,26.428
67766,175.699,58.279,26.35
67799,175.85,58.317,26.345
67832,175.884,58.364,26.373
67866,176.097,58.703,26.587
67899,176.196,58.661,26.523
67932,176.049,58.362,26.293
67965,175.824,57.996,26.058
67999,176.108,58.138,26.227
68032,175.555,57.212,25.65
68065,175.949,57.665,26.102
68099,176.307,58.148,26.442
68132,176.375,58.336,26.485
68165,176.144,58.076,26.252
68199,175.304,57.131,25.684
68232,174.575,56.478,25.428
68265,174.497,56.61,25.638
68299,174.988,57.287,26.153
68332,175.301,57.468,26.228
68365,175.296,57.511,26.197
68399,175.359,57.811,26.33
68432,175.508,58.029,26.432
68465,175.161,57.683,26.13
68499,174.854,57.357,25.938
68532,174.812,57.364,25.991
68565,174.867,57.365,26.028
68599,174.999,57.317,26.019
68632,175.168,57.449,26.103
68665,175.225,57.422,26.062
68698,175.313,57.456,26.086
68732,175.427,57.639,26.183
68765,175.686,57.801,26.257
68798,175.649,57.682,26.14
68832,175.676,57.638,26.067
68865,175.872,57.765,26.16
68898,175.921,57.74,26.125
68932,175.95,57.828,26.163
68965,176.097,58.074,26.3
68998,176.162,58.251,26.391
69032,176.062,58.249,26.335
69065,176.487,58.803,26.709
69098,176.121,58.188,26.212
69132,174.929,56.98,25.575
69165,174.251,56.498,25.475
69198,174.472,56.875,25.857
69232,174.902,57.31,26.17
69265,175.216,57.686,26.367
69298,175.315,57.849,26.386
69331,175.509,58.104,26.481
69365,175.48,58.057,26.364
69398,175.132,57.655,26.075
69431,174.995,57.534,26.026
69465,174.93,57.445,26.015
69498,174.892,57.382,25.999
69531,175.146,57.63,26.171
69565,175.403,57.781,26.241
69598,175.443,57.843,26.243
69631,175.526,58.059,26.322
69665,175.834,58.533,26.591
69698,175.884,58.576,26.533
69731,175.769,58.546,26.454
69765,175.657,58.484,26.38
69798,175.939,58.752,26.546
69831,176.068,59.372,26.87
69865,176.065,59.674,26.941
69898,176.011,59.829,26.982
69931,176.085,59.71,26.857
69964,176.082,59.389,26.627
69998,175.536,58.504,26.055
70031,174.634,57.408,25.628
70064,174.102,56.606,25.404
70098,174.07,56.455,25.455
70131,174.722,56.979,25.892
70164,175.183,57.184,26.01
70198,175.423,57.191,25.983
70231,175.708,57.216,25.981
70264,175.963,57.321,26.037
70298,175.676,56.895,25.702
70331,175.429,56.52,25.498
70364,175.581,56.631,25.655
70398,175.663,56.62,25.693
70431,176.013,57.011,25.964
70464,176.41,57.513,26.23
70498,176.559,57.514,26.134
70531,176.694,57.456,26.047
70564,176.902,57.501,26.027
70597,177.102,57.685,26.105
70631,177.264,57.758,26.12
70664,176.988,57.248,25.733
70697,177.028,57.304,25.83
70731,177.06,57.364,25.877
70764,177.323,57.662,26.095
70797,177.233,57.559,25.988
70831,177.245,57.568,25.986
70864,176.274,56.427,25.272
70897,175.338,55.486,24.985
70931,175.015,55.344,25.058
70964,175.495,55.899,25.491
70997,175.738,56.084,25.608
71031,176.093,56.406,25.788
71064,176.281,56.76,25.924
71097,176.408,56.988,25.991
71131,176.129,56.731,25.734
71164,175.797,56.359,25.472
71197,175.613,56.131,25.372
71230,175.751,56.215,25.485
71264,175.953,56.461,25.679
71297,175.876,56.083,25.422
71330,175.797,55.795,25.261
71364,176.002,56.08,25.518
71397,176.297,56.433,25.747
71430,176.454,56.592,25.803
71464,176.458,56.594,25.752
71497,176.33,56.584,25.706
71530,176.35,56.705,25.78
71564,176.277,56.712,25.742
71597,176.222,56.598,25.659
71630,176.344,56.799,25.796
71664,176.445,56.847,25.779
71697,176.487,56.905,25.787
71730,175.753,56.113,25.233
71764,174.728,55.405,24.867
71797,174.132,54.94,24.719
71830,174.198,55.157,24.978
71863,174.738,55.812,25.492
71897,174.964,56.043,25.601
71930,175.109,56.294,25.697
71963,175.118,56.391,25.696
71997,175.076,56.258,25.555
72030,175.006,56.117,25.464
72063,174.821,55.942,25.358
72097,174.874,56.053,25.456
72130,175.106,56.229,25.586
72163,175.241,56.379,25.641
72197,175.515,56.655,25.779
72230,175.535,56.722,25.75
72263,175.688,56.965,25.856
72297,175.704,56.988,25.826
72330,175.728,57.004,25.808
72363,175.867,57.146,25.897
72397,175.895,57.319,25.954
72430,175.982,57.507,26.037
72463,176.006,57.45,25.966
72496,176.096,57.566,26.014
72530,176.262,57.708,26.085
72563,176.423,57.716,26.067
72596,176.42,57.678,26.006
72630,176.268,57.311,25.735
72663,175.215,56.327,25.164
72696,174.501,55.448,24.873
72730,174.234,55.005,24.756
72763,175.123,55.896,25.471
72796,175.737,56.467,25.801
72830,176.178,56.988,26.033
72863,176.18,56.823,25.827
72896,176.032,56.632,25.679
72930,175.92,56.518,25.615
72963,175.78,56.202,25.433
72996,175.792,56.069,25.414
73030,176.144,56.234,25.601
73063,176.523,56.208,25.612
73096,176.763,56.424,25.729
73130,176.863,56.731,25.853
73163,177.112,56.961,25.956
73196,177.181,57.036,25.943
73229,177.185,57.076,25.929
73263,177.194,57.052,25.86
73296,177.153,56.973,25.782
73329,177.29,57.106,25.882
73363,177.288,57.114,25.852
73396,177.399,57.275,25.953
73429,177.711,57.584,26.142
73463,177.808,57.604,26.108
73496,177.746,57.381,25.919
73529,176.767,56.34,25.285
73563,175.864,55.519,25.009
73596,175.709,55.542,25.163
73629,176.214,56.132,25.625
73663,176.542,56.403,25.781
73696,176.653,56.528,25.806
73729,176.996,57.057,26.096
73763,177.108,57.157,26.074
73796,176.812,56.721,25.72
73829,176.49,56.39,25.527
73862,176.568,56.471,25.626
73896,176.652,56.573,25.723
73929,176.956,56.913,25.944
73962,177.167,56.979,25.944
73996,177.399,57.144,26.016
74029,177.625,57.316,26.072
74062,177.766,57.488,26.139
74096,177.577,57.289,25.943
74129,177.733,57.411,26.039
74162,177.939,57.632,26.172
74196,177.857,57.621,26.112
74229,177.726,57.568,26.053
74262,177.885,57.861,26.243
74296,177.897,57.935,26.266
74329,177.821,57.931,26.236
74362,178.012,58.139,26.36
74396,178.039,58.163,26.343
74429,177.723,57.667,25.965
74462,176.633,56.557,25.398
74495,175.924,56.022,25.251
74529,175.758,56.02,25.393
74562,176.208,56.542,25.791
74595,176.666,56.908,26.027
74629,176.743,56.893,25.972
74662,176.857,57.116,26.056
74695,176.922,57.145,26.014
74729,176.589,56.81,25.739
74762,176.327,56.592,25.641
74795,176.288,56.619,25.687
74829,176.2,56.455,25.607
74862,176.642,57.045,26.037
74895,176.667,57.008,25.947
74929,176.641,56.903,25.847
74962,176.589,56.901,25.815
74995,176.896,57.362,26.104
75029,176.872,57.231,25.957
75062,177.033,57.26,25.976
75095,177.194,57.282,25.974
75128,176.945,57.028,25.752
75162,176.801,56.978,25.7
75195,176.999,57.373,25.988
75228,177.155,57.684,26.148
75262,177.04,57.625,26.054
75295,177.184,57.944,26.231
75328,177.417,58.287,26.408
75362,177.326,58.202,26.254
75395,176.226,56.993,25.478
75428,175.449,56.414,25.296
75462,175.457,56.592,25.537
75495,175.734,57.018,25.885
75528,176.242,57.68,26.28
75562,176.403,57.901,26.331
75595,176.588,58.392,26.571
75628,176.71,58.557,26.589
75662,176.535,58.289,26.322
75695,176.289,57.809,25.996
75728,176.179,57.569,25.891
75761,176.361,57.775,26.094
75795,176.565,57.844,26.126
75828,176.716,57.94,26.194
75861,176.831,57.948,26.17
75895,177.248,58.383,26.438
75928,177.38,58.442,26.407
75961,177.439,58.457,26.378
75995,177.695,58.65,26.474
76028,177.716,58.406,26.273
76061,177.846,58.457,26.325
76095,178.085,58.656,26.468
76128,178.336,58.876,26.595
76161,178.459,58.973,26.636
76195,178.569,58.938,26.585
76228,177.81,56.808,25.531
76261,177.402,55.072,24.856
76295,176.884,54.228,24.65
76328,176.466,53.905,24.618
76361,176.237,53.41,24.44
76394,176.445,53.477,24.54
76428,177.091,54.087,24.918
76461,177.51,54.448,25.078
76494,177.685,54.475,25.019
76528,177.702,54.373,24.902
76561,177.759,54.379,24.899
76594,177.448,54.19,24.716
76628,177.369,54.121,24.712
76661,177.31,53.839,24.554
76694,177.41,53.821,24.561
76728,177.672,54.215,24.822
76761,177.896,54.633,25.034
76794,178.025,55.051,25.221
76828,178.035,55.252,25.217
76861,178.155,55.407,25.255
76894,178.268,55.457,25.24
76928,178.228,55.254,25.062
76961,178.164,55.114,24.956
76994,178.271,55.065,24.915
77027,178.028,54.681,24.653
77061,178.048,54.609,24.688
77094,178.296,54.951,24.94
77127,178.151,54.717,24.727
77161,177.281,53.813,24.18
77194,176.289,52.798,23.784
77227,175.915,52.387,23.688
77261,176.079,52.592,23.907
77294,176.562,53.056,24.234
77327,176.73,53.296,24.332
77361,176.87,53.656,24.477
77394,177.035,54.201,24.726
77427,176.801,54.093,24.563
77461,176.188,53.416,24.081
77494,176.063,53.383,24.096
77527,176.028,53.375,24.117
77561,176.164,53.372,24.161
77594,176.22,53.327,24.129
77627,176.462,53.533,24.272
77661,176.696,53.884,24.474
77694,176.904,54.283,24.684
77727,176.875,54.249,24.563
77760,176.632,53.859,24.267
77794,176.673,53.626,24.158
77827,176.82,53.623,24.209
77860,176.863,53.579,24.21
77894,176.947,53.455,24.149
77927,177.116,53.533,24.207
77960,176.633,53.114,23.873
77994,175.687,52.247,23.377
78027,175.194,51.972,23.328
78060,175.449,52.444,23.781
78094,175.713,52.624,23.928
78127,176.088,52.916,24.11
78159,176.3,52.898,24.066
78194,176.436,53.089,24.168
78227,176.387,52.947,24.009
78260,175.991,52.243,23.531
78294,175.904,52.081,23.519
78327,176.101,52.469,23.865
78360,176.289,52.844,24.095
78392,176.374,53.057,24.214
78427,176.521,53.271,24.299
78460,176.713,53.573,24.438
78493,176.976,54.048,24.683
78527,177.164,54.349,24.798
78560,177.042,54.179,24.603
78593,177.178,54.385,24.729
78627,177.36,54.512,24.762
78659,177.394,54.512,24.716
78693,177.283,54.393,24.587
78727,176.639,53.733,24.149
78760,175.825,53.006,23.787
78793,175.658,53.116,23.978
78827,176.032,53.788,24.507
78860,176.396,54.253,24.81
78892,176.633,54.522,24.887
78927,176.884,54.903,25.065
78960,176.976,55.145,25.138
78993,176.833,55.027,24.995
79026,176.654,54.876,24.865
79060,176.552,54.786,24.811
79093,176.555,54.808,24.857
79125,176.89,55.052,25.012
79159,176.995,55.061,24.989
79193,177.141,55.196,25.048
79226,177.419,55.514,25.203
79260,177.678,55.818,25.326
79293,177.747,56.02,25.359
79326,177.779,56.124,25.35
79360,177.911,56.329,25.427
79392,177.851,56.107,25.233
79426,177.913,56.105,25.255
79460,177.848,55.969,25.14
79493,177.027,55.153,24.631
79526,176.304,54.525,24.387
79560,176.221,54.396,24.465
79593,176.432,54.474,24.646
79625,176.746,54.772,24.891
79659,177.147,55.196,25.168
79693,177.392,55.312,25.178
79726,177.326,55.106,24.978
79759,177.168,54.81,24.793
79793,176.916,54.417,24.568
79826,176.806,54.254,24.553
79858,176.999,54.418,24.741
79892,177.06,54.401,24.742
79926,177.234,54.58,24.868
79959,177.451,54.842,25.003
79993,177.536,54.943,25.012
80026,177.484,54.864,24.897
80059,177.771,55.101,25.064
80093,177.724,54.861,24.874
80125,177.706,54.782,24.827
80159,177.953,54.942,24.943
80193,177.917,54.914,24.901
80226,177.23,54.099,24.37
80259,176.146,52.955,23.877
80292,175.825,52.769,23.957
80326,175.995,53.151,24.278
80358,176.077,53.218,24.354
80392,176.266,53.375,24.458
80426,176.394,53.445,24.477
80459,176.43,53.376,24.405
80492,176.392,53.318,24.35
80526,176.27,53.14,24.226
80559,176.056,52.835,24.037
80592,176.172,52.891,24.147
80625,176.352,52.867,24.143
80659,176.283,52.448,23.844
80692,176.265,52.274,23.725
80726,176.444,52.425,23.853
80759,176.564,52.739,24.062
80792,176.554,52.842,24.107
80826,176.844,53.408,24.475
80858,176.832,53.54,24.483
80892,176.672,53.529,24.419
80925,176.664,53.761,24.565
80959,176.704,54.003,24.694
80992,176.819,54.314,24.883
81025,176.232,53.631,24.36
81059,175.152,52.68,23.845
81092,174.924,52.546,23.937
81125,175.195,52.902,24.288
81159,175.528,53.298,24.57
81192,175.647,53.5,24.634
81225,175.604,53.456,24.54
81259,175.648,53.451,24.513
81292,175.522,53.418,24.46
81325,175.325,53.3,24.383
81358,175.083,53.088,24.249
81392,175.15,53.11,24.317
81425,175.209,53.038,24.281
81459,175.538,53.505,24.596
81492,175.559,53.456,24.509
81525,175.557,53.505,24.508
81559,175.583,53.492,24.48
81592,175.819,53.759,24.662
81625,175.838,53.73,24.589
81658,175.753,53.66,24.526
81692,175.998,54.039,24.779
81725,176.024,54.127,24.787
81758,175.936,54.009,24.662
81792,176.148,54.135,24.768
81825,176.296,54.283,24.846
81858,176.544,54.309,24.837
81892,176.467,54.082,24.662
81925,175.547,53.06,24.027
81958,174.88,52.611,23.87
81992,174.836,52.613,24.023
82025,175.198,52.995,24.381
82058,175.642,53.308,24.576
82092,175.717,53.259,24.499
82125,175.846,53.335,24.525
82158,175.95,53.27,24.461
82192,175.714,52.915,24.195
82225,175.496,52.654,24.061
82258,175.66,52.888,24.284
82291,175.849,53.184,24.471
82325,176.102,53.383,24.571
82358,176.202,53.32,24.484
82391,176.283,53.239,24.413
82425,176.41,53.319,24.468
82458,176.596,53.455,24.545
82491,176.641,53.384,24.48
82525,176.689,53.456,24.506
82558,176.67,53.49,24.505
82591,176.855,53.737,24.643
82625,176.973,53.887,24.709
82658,176.883,53.771,24.588
82691,177.006,53.905,24.672
82725,177.169,53.998,24.718
82758,177.232,53.968,24.672
82791,176.962,53.508,24.332
82825,175.874,52.45,23.762
82858,175.26,52.019,23.672
82891,175.408,52.306,23.972
82924,175.677,52.53,24.185
82958,175.951,52.823,24.375
82991,176.253,53.156,24.546
83024,176.348,53.303,24.538
83058,176.217,53.138,24.375
83091,175.973,52.823,24.152
83124,175.807,52.735,24.121
83158,175.97,52.943,24.312
83191,176.049,52.949,24.304
83224,176.262,53.171,24.446
83258,176.423,53.473,24.596
83291,176.603,53.693,24.683
83324,176.637,53.691,24.611
83358,176.835,54.0,24.782
83391,176.844,54.115,24.79
83424,176.776,53.965,24.642
83458,176.812,54.079,24.714
83491,176.815,54.061,24.689
83524,176.704,53.831,24.539
83557,176.803,53.909,24.632
83591,176.999,54.171,24.793
83624,177.129,54.326,24.868
83657,177.202,54.48,24.919
83691,177.344,54.744,25.027
83724,177.536,55.072,25.166
83757,177.334,54.736,24.876
83791,176.135,53.486,24.152
83824,175.25,52.903,23.991
83857,175.271,53.259,24.327
83891,175.67,53.702,24.661
83924,175.776,53.667,24.617
83957,176.081,54.019,24.825
83991,176.326,54.366,24.992
84024,176.412,54.578,25.053
84057,176.13,54.301,24.774
84091,176.124,54.453,24.874
84124,176.046,54.478,24.847
84157,176.064,54.538,24.847
84190,176.306,54.779,24.995
84224,176.512,54.967,25.067
84257,176.681,55.059,25.095
84290,176.74,54.917,24.973
84324,176.797,54.879,24.936
84357,177.033,54.985,25.009
84390,177.108,55.001,25.001
84424,177.132,54.957,24.959
84457,177.275,55.099,25.052
84490,177.397,55.31,25.161
84524,177.472,55.296,25.105
84557,177.541,55.278,25.084
84590,177.703,55.4,25.145
84624,177.808,55.51,25.194
84657,177.971,55.689,25.263
84690,177.992,55.57,25.141
84724,176.813,54.241,24.372
84757,175.991,53.519,24.164
84790,175.998,53.609,24.361
84823,176.344,53.976,24.669
84857,176.623,54.127,24.761
84890,176.827,54.276,24.834
84923,177.001,54.527,24.941
84957,177.056,54.522,24.896
84990,176.845,54.229,24.662
85023,176.57,53.977,24.499
85057,176.538,53.94,24.519
85090,176.534,53.899,24.532
85123,176.761,54.17,24.732
85157,177.052,54.466,24.906
85190,177.175,54.517,24.873
85223,177.373,54.662,24.919
85257,177.481,54.674,24.888
85290,177.383,54.521,24.762
85323,177.438,54.527,24.761
85357,177.555,54.674,24.845
85390,177.558,54.695,24.84
85423,177.595,54.755,24.876
85457,177.617,54.68,24.825
85490,177.653,54.67,24.823
85523,177.754,54.898,24.962
85556,177.82,54.962,24.973
85590,177.908,55.112,25.029
85623,177.994,55.094,24.981
85656,177.173,54.151,24.346
85690,175.96,53.006,23.934
85723,175.474,52.696,23.94
85756,175.607,52.872,24.139
85790,175.864,53.215,24.355
85823,176.306,53.808,24.699
85856,176.366,53.866,24.65
85890,176.255,53.693,24.499
85923,176.088,53.527,24.386
85956,175.89,53.3,24.237
85990,175.68,53.127,24.148
86023,175.59,53.095,24.182
86056,175.83,53.383,24.41
86090,175.957,53.391,24.4
86123,176.051,53.467,24.435
86156,176.176,53.518,24.453
86189,176.334,53.665,24.521
86223,176.29,53.55,24.398
86256,176.443,53.695,24.495
86289,176.442,53.608,24.412
86323,176.34,53.373,24.267
86356,176.51,53.598,24.449
86389,176.627,53.728,24.503
86423,176.637,53.775,24.497
86456,176.697,53.868,24.538
86489,176.749,53.961,24.571
86523,176.82,54.078,24.601
86556,176.938,54.224,24.67
86589,176.806,53.995,24.461
86623,175.681,52.842,23.817
86656,174.679,51.909,23.516
86689,174.493,51.78,23.593
86723,174.797,52.159,23.91
86756,175.192,52.47,24.105
86789,175.381,52.578,24.147
86822,175.496,52.733,24.215
86856,175.562,52.717,24.151
86889,175.534,52.728,24.138
86922,175.195,52.277,23.82
86956,175.008,51.992,23.686
86989,175.145,52.205,23.868
87022,175.339,52.421,24.01
87056,175.445,52.456,24.014
87089,175.585,52.638,24.106
87122,175.889,53.034,24.337
87156,175.89,52.879,24.157
87189,175.887,52.904,24.144
87222,176.118,53.186,24.322
87256,176.115,53.211,24.284
87289,176.135,53.256,24.292
87322,176.116,53.195,24.244
87356,176.231,53.326,24.319
87389,176.326,53.413,24.35
87422,176.338,53.473,24.374
87455,176.422,53.682,24.472
87489,176.583,53.876,24.555
87522,176.725,54.024,24.616
87555,176.529,53.739,24.372
87589,175.368,52.586,23.66
87622,174.556,51.849,23.47
87655,174.166,51.416,23.395
87689,174.549,51.927,23.81
87722,175.029,52.487,24.17
87755,175.269,52.738,24.256
87789,175.363,52.764,24.211
87822,175.476,52.904,24.254
87855,175.285,52.823,24.142
87889,175.044,52.557,23.967
87922,174.699,52.071,23.665
87955,174.909,52.387,23.958
87989,175.041,52.525,24.051
88022,175.354,52.929,24.302
88055,175.506,53.021,24.294
88088,175.615,53.175,24.345
88122,175.925,53.781,24.674
88155,176.144,54.278,24.878
88188,175.962,53.916,24.55
88222,175.852,53.516,24.28
88255,175.954,53.439,24.259
88288,176.051,53.488,24.333
88322,176.054,53.31,24.227
88355,176.124,53.249,24.228
88388,176.134,53.162,24.184
88422,176.243,53.279,24.291
88455,176.51,53.588,24.501
88488,176.31,53.267,24.225
88522,175.17,52.051,23.525
88555,174.462,51.488,23.376
88588,174.354,51.469,23.495
88622,174.605,51.63,23.697
88655,175.074,51.985,23.954
88688,175.359,52.133,24.023
88721,175.553,52.205,24.014
88755,175.613,52.161,23.939
88788,175.456,51.96,23.763
88821,175.125,51.73,23.612
88855,174.802,51.377,23.428
88888,174.976,51.597,23.657
88921,175.136,51.77,23.785
88955,175.234,51.813,23.815
88988,175.492,52.056,23.947
89021,175.669,52.236,24.021
89055,175.78,52.37,24.041
89088,175.855,52.466,24.047
89121,175.824,52.419,23.98
89155,175.868,52.447,23.996
89188,176.04,52.701,24.144
89221,175.971,52.714,24.121
89255,175.941,52.803,24.161
89288,176.059,52.949,24.263
89321,175.926,52.719,24.078
89355,175.07,51.78,23.463
89388,174.174,51.079,23.196
89421,173.707,50.687,23.126
89454,173.798,50.807,23.333
89488,174.116,51.166,23.637
89521,174.389,51.398,23.79
89554,174.704,51.745,23.951
89588,174.929,52.18,24.137
89621,174.728,52.055,23.937
89654,174.399,51.774,23.725
89688,174.16,51.631,23.655
89721,174.215,52.021,23.941
89754,174.515,52.563,24.261
89788,174.579,52.7,24.24
89821,174.679,52.854,24.261
89854,174.843,53.13,24.406
89888,174.894,53.258,24.402
89921,174.936,53.185,24.318
89954,175.204,53.286,24.354
89988,175.356,53.362,24.367
90021,175.297,53.321,24.308
90054,175.303,53.429,24.345
90087,175.384,53.632,24.464
90121,175.24,53.378,24.261
90154,174.482,52.421,23.66
90187,173.584,51.539,23.327
90221,173.023,50.885,23.149
90254,173.25,51.203,23.492
90287,173.688,51.713,23.855
