time,R,G,B
0,171.105,27.743,0.0
33,171.381,27.952,0.0
66,171.685,28.216,0.0
99,171.92,28.478,0.0
132,172.092,28.661,0.0
166,172.295,28.846,0.0
199,172.449,29.066,0.0
233,172.58,29.221,0.0
266,172.734,29.379,0.0
299,172.939,29.591,0.0
333,173.094,29.782,0.0
366,173.267,29.974,0.0
399,173.435,30.157,0.0
433,173.655,30.38,0.0
466,173.886,30.633,0.0
499,174.082,30.846,0.0
532,174.284,31.076,0.0
566,174.073,31.138,0.0
599,172.027,29.821,0.0
632,169.667,27.767,0.0
666,168.846,26.639,0.0
699,169.151,26.553,0.0
732,169.653,26.819,0.0
766,169.808,26.953,0.0
799,169.649,26.845,0.0
832,169.819,26.922,0.0
866,170.247,27.235,0.0
899,170.488,27.489,0.0
932,170.473,27.562,0.0
965,170.432,27.583,0.0
999,170.468,27.616,0.0
1032,170.699,27.793,0.0
1065,170.918,28.015,0.0
1099,171.251,28.308,0.0
1132,171.539,28.61,0.0
1165,171.669,28.812,0.0
1199,171.79,28.96,0.0
1232,171.974,29.181,0.0
1265,172.062,29.366,0.0
1298,172.139,29.495,0.0
1332,172.295,29.687,0.0
1365,172.471,29.912,0.0
1398,172.642,30.096,0.0
1432,172.821,30.311,0.0
1465,173.169,30.625,0.0
1498,173.501,30.955,0.0
1532,173.212,30.962,0.0
1565,171.414,29.83,0.0
1598,169.417,28.067,0.0
1632,168.786,27.11,0.0
1665,169.367,27.207,0.0
1698,170.023,27.643,0.0
1731,170.202,27.844,0.0
1765,170.332,27.91,0.0
1798,170.635,28.144,0.0
1831,170.884,28.388,0.0
1865,170.932,28.493,0.0
1898,170.931,28.521,0.0
1931,170.894,28.509,0.0
1965,171.036,28.596,0.0
1998,171.42,28.862,0.0
2031,171.835,29.201,0.0
2065,172.187,29.553,0.0
2098,172.49,29.869,0.0
2131,172.718,30.121,0.0
2164,172.872,30.319,0.0
2198,173.043,30.515,0.0
2231,173.11,30.64,0.0
2264,173.248,30.795,0.0
2298,173.486,31.03,0.0
2331,173.747,31.302,0.0
2363,173.306,31.2,0.0
2398,171.304,29.816,0.0
2431,169.441,28.076,0.0
2464,168.9,27.275,0.0
2497,169.324,27.293,0.0
2531,169.77,27.548,0.0
2564,169.895,27.678,0.0
2597,169.956,27.724,0.0
2631,170.242,27.899,0.0
2664,170.541,28.195,0.0
2697,170.645,28.328,0.0
2731,170.588,28.318,0.0
2764,170.655,28.359,0.0
2797,170.901,28.521,0.0
2831,171.184,28.741,0.0
2863,171.538,29.07,0.0
2897,171.865,29.4,0.0
2930,172.064,29.621,0.0
2964,172.311,29.877,0.0
2997,172.464,30.061,0.0
3030,172.544,30.218,0.0
3064,172.642,30.348,0.0
3097,172.755,30.487,0.0
3130,172.883,30.648,0.0
3164,173.133,30.887,0.0
3197,173.35,31.134,0.0
3230,172.641,30.865,0.0
3264,170.449,29.238,0.0
3297,168.793,27.575,0.0
3330,168.661,27.002,0.0
3363,169.154,27.106,0.0
3397,169.499,27.299,0.0
3430,169.538,27.299,0.0
3463,169.488,27.221,0.0
3497,169.716,27.361,0.0
3530,170.063,27.635,0.0
3563,170.314,27.895,0.0
3597,170.233,27.89,0.0
3630,170.092,27.81,0.0
3663,170.327,27.942,0.0
3697,170.702,28.223,0.0
3730,170.92,28.447,0.0
3763,171.179,28.667,0.0
3796,171.557,29.01,0.0
3830,171.71,29.212,0.0
3863,171.912,29.42,0.0
3896,172.022,29.595,0.0
3930,172.033,29.665,0.0
3963,172.233,29.826,0.0
3996,172.4,30.014,0.0
4030,172.476,30.154,0.0
4063,172.638,30.31,0.0
4096,172.849,30.534,0.0
4130,173.068,30.774,0.0
4163,173.118,30.895,0.0
4196,172.53,30.718,0.0
4229,170.372,29.118,0.0
4263,168.657,27.39,0.0
4296,168.431,26.745,0.0
4329,169.015,26.939,0.0
4363,169.508,27.219,0.0
4396,169.512,27.236,0.0
4429,169.446,27.134,0.0
4463,169.788,27.348,0.0
4496,170.187,27.681,0.0
4529,170.309,27.851,0.0
4563,170.265,27.858,0.0
4596,170.347,27.914,0.0
4629,170.441,28.001,0.0
4662,170.735,28.199,0.0
4696,171.103,28.515,0.0
4729,171.274,28.741,0.0
4762,171.414,28.934,0.0
4796,171.639,29.168,0.0
4829,171.784,29.331,0.0
4862,171.873,29.478,0.0
4896,172.144,29.714,0.0
4929,172.263,29.873,0.0
4962,172.412,30.034,0.0
4995,172.599,30.241,0.0
5029,172.804,30.478,0.0
5062,172.908,30.632,0.0
5094,173.119,30.838,0.0
5129,173.395,31.125,0.0
5162,173.399,31.271,0.0
5195,172.002,30.468,0.0
5229,169.808,28.609,0.0
5262,168.81,27.335,0.0
5295,169.067,27.14,0.0
5329,169.743,27.485,0.0
5362,170.132,27.772,0.0
5395,170.122,27.784,0.0
5428,170.253,27.855,0.0
5462,170.552,28.124,0.0
5495,170.742,28.329,0.0
5528,170.773,28.394,0.0
5562,170.61,28.311,0.0
5594,170.733,28.384,0.0
5628,171.071,28.616,0.0
5662,171.314,28.871,0.0
5695,171.522,29.118,0.0
5728,171.75,29.363,0.0
5762,171.952,29.617,0.0
5795,172.019,29.768,0.0
5828,172.096,29.866,0.0
5861,172.225,30.038,0.0
5895,172.297,30.157,0.0
5928,172.362,30.24,0.0
5961,172.586,30.446,0.0
5995,172.793,30.663,0.0
6028,172.988,30.881,0.0
6061,172.765,30.911,0.0
6094,170.948,29.635,0.0
6128,169.122,27.881,0.0
6161,168.672,27.087,0.0
6195,169.168,27.18,0.0
6228,169.682,27.501,0.0
6261,169.902,27.685,0.0
6294,169.977,27.744,0.0
6328,170.2,27.925,0.0
6361,170.477,28.172,0.0
6394,170.526,28.251,0.0
6428,170.461,28.214,0.0
6461,170.553,28.235,0.0
6494,170.878,28.446,0.0
6528,171.217,28.723,0.0
6561,171.53,28.994,0.0
6594,171.8,29.274,0.0
6628,172.019,29.491,0.0
6661,172.064,29.603,0.0
6694,172.259,29.785,0.0
6727,172.48,29.98,0.0
6761,172.577,30.126,0.0
6794,172.661,30.252,0.0
6827,171.666,29.662,0.0
6861,169.786,28.018,0.0
6894,168.852,26.829,0.0
6927,168.983,26.559,0.0
6961,169.428,26.75,0.0
6994,169.612,26.857,0.0
7027,169.671,26.844,0.0
7061,169.858,26.919,0.0
7094,170.318,27.25,0.0
7127,170.523,27.468,0.0
7160,170.335,27.403,0.0
7194,170.19,27.302,0.0
7227,170.324,27.333,0.0
7260,170.444,27.415,0.0
7294,170.723,27.63,0.0
7327,171.028,27.904,0.0
7360,171.177,28.09,0.0
7394,171.29,28.227,0.0
7427,171.374,28.354,0.0
7460,171.39,28.398,0.0
7493,171.462,28.466,0.0
7527,171.509,28.533,0.0
7560,171.682,28.668,0.0
7593,171.811,28.824,0.0
7627,171.139,28.561,0.0
7660,168.946,26.939,0.0
7693,167.307,25.256,0.0
7727,166.921,24.576,0.0
7760,167.138,24.566,0.0
7793,167.337,24.632,0.0
7827,167.309,24.533,0.0
7860,167.291,24.415,0.0
7893,167.766,24.683,0.0
7927,168.367,25.165,0.0
7960,168.286,25.303,0.0
7993,168.023,25.19,0.0
8026,168.097,25.257,0.0
8060,168.259,25.378,0.0
8093,168.685,25.695,0.0
8126,169.16,26.091,0.0
8160,169.586,26.478,0.0
8193,169.969,26.82,0.0
8226,170.364,27.148,0.0
8260,170.616,27.431,0.0
8293,170.644,27.554,0.0
8325,170.752,27.71,0.0
8359,170.917,27.922,0.0
8393,171.081,28.133,0.0
8426,171.337,28.348,0.0
8459,171.895,28.808,0.0
8493,172.106,29.089,0.0
8526,172.192,29.262,0.0
8559,172.339,29.439,0.0
8593,172.461,29.62,0.0
8626,172.48,29.713,0.0
8659,172.147,29.64,0.0
8693,170.476,28.404,0.0
8726,168.558,26.432,0.0
8759,168.107,25.498,0.0
8792,168.517,25.518,0.0
8825,168.812,25.723,0.0
8859,168.941,25.826,0.0
8892,169.084,25.82,0.0
8926,169.375,25.983,0.0
8959,170.025,26.503,0.0
8992,170.487,26.929,0.0
9026,170.674,27.144,0.0
9059,170.838,27.284,0.0
9092,171.081,27.478,0.0
9126,171.368,27.722,0.0
9159,171.514,27.956,0.0
9192,171.746,28.216,0.0
9225,172.006,28.508,0.0
9259,172.048,28.665,0.0
9292,172.055,28.78,0.0
9325,172.209,28.957,0.0
9359,172.351,29.13,0.0
9392,172.346,29.184,0.0
9425,172.592,29.391,0.0
9459,172.891,29.695,0.0
9492,173.119,29.952,0.0
9525,173.28,30.149,0.0
9558,173.618,30.479,0.0
9592,173.816,30.732,0.0
9625,174.005,30.97,0.0
9658,174.111,31.202,0.0
9692,173.361,30.87,0.0
9725,171.178,29.048,0.0
9757,169.551,27.302,0.0
9792,169.197,26.708,0.0
9825,169.588,26.859,0.0
9858,169.634,26.934,0.0
9892,169.62,26.865,0.0
9925,169.736,26.846,0.0
9958,170.203,27.211,0.0
9991,170.502,27.581,0.0
10025,170.49,27.727,0.0
10058,170.445,27.777,0.0
10091,170.705,27.997,0.0
10125,171.18,28.351,0.0
10158,171.799,28.878,0.0
10191,172.313,29.392,0.0
10225,172.559,29.723,0.0
10257,172.766,30.013,0.0
10291,172.913,30.209,0.0
10325,172.996,30.339,0.0
10358,172.965,30.403,0.0
10391,172.936,30.429,0.0
10424,172.746,30.389,0.0
10458,172.754,30.456,0.0
10491,172.908,30.616,0.0
10524,172.786,30.669,0.0
10558,172.439,30.545,0.0
10591,172.152,30.449,0.0
10624,171.788,30.344,0.0
10658,170.443,29.262,0.0
10691,168.922,27.664,0.0
10724,168.55,26.972,0.0
10757,168.899,27.061,0.0
10791,169.215,27.321,0.0
10824,169.285,27.438,0.0
10857,169.398,27.491,0.0
10891,169.803,27.783,0.0
10924,170.235,28.164,0.0
10957,170.466,28.406,0.0
10991,170.457,28.414,0.0
11024,170.576,28.48,0.0
11057,170.944,28.723,0.0
11091,171.339,29.046,0.0
11124,171.743,29.42,0.0
11157,172.22,29.836,0.0
11191,172.601,30.2,0.0
11224,172.802,30.453,0.0
11257,173.043,30.694,0.0
11290,173.238,30.933,0.0
11324,173.294,31.041,0.0
11357,173.586,31.276,0.0
11390,173.864,31.564,0.0
11424,174.137,31.827,0.0
11457,174.424,32.087,0.0
11490,174.267,32.132,0.0
11524,172.793,30.961,0.0
11557,171.295,29.322,0.0
11590,171.051,28.681,0.0
11623,171.488,28.809,0.0
11657,171.779,29.047,0.0
11690,171.792,29.082,0.0
11723,171.785,29.061,0.0
11757,172.113,29.305,0.0
11790,172.567,29.733,0.0
11823,172.698,29.945,0.0
11857,172.564,29.93,0.0
11890,172.532,29.918,0.0
11923,172.737,30.079,0.0
11957,172.95,30.284,0.0
11990,173.288,30.592,0.0
12023,173.675,30.965,0.0
12056,173.925,31.28,0.0
12090,174.125,31.525,0.0
12123,174.368,31.776,0.0
12156,174.519,31.97,0.0
12190,174.587,32.102,0.0
12223,174.72,32.249,0.0
12256,174.941,32.462,0.0
12290,175.066,32.606,0.0
12323,175.215,32.785,0.0
12356,175.492,33.062,0.0
12390,175.136,32.969,0.0
12423,173.238,31.455,0.0
12456,171.582,29.601,0.0
12488,171.331,28.919,0.0
12523,171.768,29.053,0.0
12556,172.004,29.226,0.0
12589,171.972,29.185,0.0
12623,171.944,29.108,0.0
12656,172.319,29.343,0.0
12689,172.85,29.83,0.0
12723,173.105,30.135,0.0
12756,173.039,30.181,0.0
12789,173.021,30.207,0.0
12823,173.196,30.345,0.0
12856,173.479,30.584,0.0
12889,173.829,30.913,0.0
12922,174.123,31.238,0.0
12956,174.314,31.486,0.0
12988,174.475,31.694,0.0
13022,174.667,31.901,0.0
13056,174.755,32.058,0.0
13089,174.864,32.197,0.0
13122,175.072,32.392,0.0
13156,175.238,32.57,0.0
13189,175.386,32.744,0.0
13222,175.587,32.954,0.0
13256,175.798,33.174,0.0
13289,175.993,33.396,0.0
13322,175.911,33.478,0.0
13355,174.642,32.575,0.0
13389,172.653,30.601,0.0
13422,171.876,29.398,0.0
13455,172.289,29.342,0.0
13488,172.688,29.599,0.0
13522,172.855,29.704,0.0
13555,172.735,29.569,0.0
13589,172.853,29.585,0.0
13622,173.403,30.027,0.0
13655,173.744,30.401,0.0
13688,173.806,30.533,0.0
13722,173.839,30.58,0.0
13755,173.897,30.638,0.0
13788,174.088,30.798,0.0
13822,174.41,31.086,0.0
13855,174.724,31.401,0.0
13888,174.951,31.667,0.0
13922,175.182,31.939,0.0
13955,175.324,32.131,0.0
13988,175.506,32.34,0.0
14022,175.719,32.563,0.0
14055,175.894,32.766,0.0
14088,176.027,32.942,0.0
14121,176.138,33.083,0.0
14155,176.336,33.307,0.0
14188,176.536,33.53,0.0
14221,176.714,33.739,0.0
14255,176.889,33.949,0.0
14288,177.112,34.227,0.0
14321,176.928,34.237,0.0
14355,175.325,33.002,0.0
14388,173.312,30.929,0.0
14421,172.753,29.92,0.0
14455,173.34,30.07,0.0
14488,173.761,30.39,0.0
14521,173.811,30.492,0.0
14554,173.653,30.361,0.0
14588,173.966,30.562,0.0
14621,174.355,30.943,0.0
14654,174.486,31.163,0.0
14688,174.374,31.146,0.0
14721,174.287,31.114,0.0
14754,174.326,31.118,0.0
14788,174.514,31.299,0.0
14821,174.785,31.569,0.0
14854,175.022,31.825,0.0
14888,175.218,32.088,0.0
14921,175.341,32.267,0.0
14954,175.463,32.447,0.0
14987,175.647,32.646,0.0
15021,175.752,32.804,0.0
15054,175.812,32.926,0.0
15087,175.944,33.078,0.0
15121,176.086,33.249,0.0
15154,176.242,33.471,0.0
15187,176.443,33.683,0.0
15221,176.643,33.952,0.0
15254,176.197,33.81,0.0
15287,174.303,32.276,0.0
15321,172.692,30.519,0.0
15354,172.493,29.905,0.0
15387,173.044,30.139,0.0
15420,173.477,30.515,0.0
15454,173.544,30.619,0.0
15487,173.62,30.677,0.0
15520,173.957,30.971,0.0
15554,174.215,31.262,0.0
15587,174.087,31.262,0.0
15620,173.86,31.106,0.0
15654,173.849,31.087,0.0
15687,174.052,31.267,0.0
15719,174.305,31.521,0.0
15753,174.57,31.796,0.0
15787,174.767,32.036,0.0
15820,174.966,32.281,0.0
15853,174.983,32.4,0.0
15887,175.025,32.526,0.0
15920,175.098,32.612,0.0
15953,175.185,32.732,0.0
15987,175.273,32.843,0.0
16020,175.539,33.074,0.0
16053,175.795,33.331,0.0
16087,175.467,33.256,0.0
16120,173.583,31.724,0.0
16153,172.063,30.066,0.0
16186,171.988,29.564,0.0
16219,172.535,29.785,0.0
16253,172.956,30.066,0.0
16286,173.029,30.142,0.0
16320,173.063,30.162,0.0
16353,173.405,30.417,0.0
16386,173.788,30.801,0.0
16420,173.854,30.923,0.0
16453,173.734,30.84,0.0
16486,173.721,30.845,0.0
16520,173.927,31.031,0.0
16553,174.267,31.307,0.0
16586,174.678,31.703,0.0
16619,174.944,32.008,0.0
16653,175.118,32.249,0.0
16686,175.382,32.511,0.0
16719,175.519,32.726,0.0
16753,175.51,32.798,0.0
16786,175.677,32.97,0.0
16819,175.839,33.159,0.0
16853,176.036,33.358,0.0
16886,176.25,33.6,0.0
16919,176.016,33.611,0.0
16953,174.221,32.254,0.0
16986,172.27,30.276,0.0
17019,171.865,29.451,0.0
17052,172.405,29.578,0.0
17086,172.841,29.858,0.0
17119,172.854,29.871,0.0
17152,172.656,29.665,0.0
17186,172.909,29.794,0.0
17219,173.416,30.216,0.0
17252,173.725,30.541,0.0
17286,173.644,30.557,0.0
17319,173.622,30.567,0.0
17352,173.678,30.619,0.0
17385,173.838,30.767,0.0
17419,174.186,31.08,0.0
17452,174.498,31.437,0.0
17485,174.607,31.623,0.0
17519,174.565,31.752,0.0
17552,174.666,31.906,0.0
17585,174.841,32.094,0.0
17619,174.995,32.267,0.0
17652,175.23,32.523,0.0
17685,175.378,32.703,0.0
17719,175.582,32.94,0.0
17752,175.749,33.157,0.0
17785,175.845,33.315,0.0
17818,175.944,33.471,0.0
17852,176.173,33.69,0.0
17885,176.289,33.899,0.0
17918,175.094,33.158,0.0
17952,172.799,31.095,0.0
17985,171.596,29.636,0.0
18018,171.89,29.49,0.0
18052,172.57,29.85,0.0
18085,172.785,29.996,0.0
18118,172.643,29.847,0.0
18152,172.706,29.806,0.0
18185,173.099,30.107,0.0
18218,173.574,30.51,0.0
18251,173.73,30.732,0.0
18285,173.643,30.73,0.0
18318,173.627,30.719,0.0
18351,173.833,30.878,0.0
18385,174.116,31.144,0.0
18418,174.429,31.451,0.0
18450,174.683,31.743,0.0
18485,174.911,32.011,0.0
18518,175.009,32.178,0.0
18551,175.121,32.338,0.0
18585,175.328,32.557,0.0
18618,175.432,32.707,0.0
18651,175.594,32.899,0.0
18684,175.766,33.115,0.0
18718,175.937,33.316,0.0
18751,176.114,33.536,0.0
18784,176.403,33.815,0.0
18818,176.51,34.007,0.0
18851,176.651,34.205,0.0
18884,176.863,34.429,0.0
18918,177.064,34.645,0.0
18950,177.243,34.884,0.0
18984,176.879,34.799,0.0
19018,174.796,33.186,0.0
19051,172.665,31.047,0.0
19084,172.271,30.194,0.0
19117,172.865,30.363,0.0
19151,173.474,30.736,0.0
19184,173.622,30.867,0.0
19217,173.465,30.72,0.0
19251,173.671,30.809,0.0
19284,174.074,31.172,0.0
19317,174.295,31.435,0.0
19351,174.29,31.48,0.0
19384,174.214,31.439,0.0
19417,174.268,31.484,0.0
19450,174.568,31.712,0.0
19484,174.901,32.054,0.0
19517,175.226,32.397,0.0
19550,175.471,32.682,0.0
19584,175.724,32.956,0.0
19617,175.888,33.189,0.0
19650,175.997,33.336,0.0
19684,176.151,33.547,0.0
19717,176.251,33.706,0.0
19750,176.412,33.894,0.0
19784,176.574,34.076,0.0
19817,176.697,34.29,0.0
19850,176.895,34.512,0.0
19884,177.078,34.732,0.0
19917,177.304,34.996,0.0
19950,177.579,35.289,0.0
19983,177.752,35.543,0.0
20017,177.032,35.171,0.0
20050,174.742,33.263,0.0
20083,173.145,31.481,0.0
20117,173.224,31.061,0.0
20150,173.972,31.403,0.0
20183,174.41,31.774,0.0
20217,174.516,31.879,0.0
20250,174.639,31.951,0.0
20283,174.88,32.14,0.0
20316,174.995,32.298,0.0
20350,174.955,32.315,0.0
20382,174.882,32.259,0.0
20416,174.857,32.234,0.0
20450,174.984,32.356,0.0
20483,175.284,32.607,0.0
20516,175.574,32.92,0.0
20550,175.835,33.182,0.0
20583,176.098,33.469,0.0
20616,176.222,33.664,0.0
20650,176.382,33.864,0.0
20683,176.51,34.019,0.0
20716,176.562,34.12,0.0
20749,176.588,34.22,0.0
20783,176.756,34.393,0.0
20816,176.933,34.586,0.0
20849,177.142,34.815,0.0
20882,176.984,34.856,0.0
20916,175.436,33.728,0.0
20949,173.346,31.729,0.0
20983,172.508,30.576,0.0
21016,172.924,30.554,0.0
21049,173.61,30.982,0.0
21083,173.967,31.256,0.0
21116,173.917,31.207,0.0
21149,174.194,31.381,0.0
21182,174.499,31.675,0.0
21216,174.511,31.751,0.0
21249,174.277,31.616,0.0
21282,174.208,31.547,0.0
21316,174.444,31.678,0.0
21349,174.77,31.969,0.0
21382,175.163,32.322,0.0
21416,175.464,32.634,0.0
21449,175.68,32.88,0.0
21482,175.948,33.17,0.0
21516,176.06,33.338,0.0
21549,176.085,33.461,0.0
21582,176.104,33.537,0.0
21615,176.209,33.669,0.0
21649,176.251,33.805,0.0
21682,176.463,34.007,0.0
21715,176.774,34.327,0.0
21749,176.309,34.175,0.0
21782,174.207,32.495,0.0
21815,172.366,30.571,0.0
21849,172.022,29.807,0.0
21882,172.546,29.938,0.0
21915,173.044,30.217,0.0
21948,173.091,30.224,0.0
21982,172.928,30.054,0.0
22015,173.214,30.178,0.0
22048,173.716,30.589,0.0
22082,173.867,30.8,0.0
22115,173.849,30.856,0.0
22148,173.82,30.826,0.0
22182,173.866,30.882,0.0
22215,174.109,31.087,0.0
22248,174.469,31.406,0.0
22282,174.715,31.678,0.0
22315,174.9,31.928,0.0
22348,175.052,32.155,0.0
22381,175.208,32.34,0.0
22415,175.272,32.473,0.0
22448,175.384,32.617,0.0
22481,175.543,32.819,0.0
22515,175.637,32.977,0.0
22548,175.75,33.145,0.0
22581,175.85,33.307,0.0
22615,176.042,33.549,0.0
22648,176.193,33.748,0.0
22681,176.327,33.921,0.0
22715,176.48,34.118,0.0
22748,176.639,34.303,0.0
22781,176.735,34.488,0.0
22814,175.939,34.068,0.0
22848,173.514,32.033,0.0
22881,171.686,30.086,0.0
22914,171.643,29.555,0.0
22948,172.363,29.845,0.0
22981,172.814,30.104,0.0
23014,172.814,30.084,0.0
23048,172.71,29.946,0.0
23081,172.922,30.054,0.0
23113,173.322,30.391,0.0
23148,173.572,30.652,0.0
23181,173.551,30.706,0.0
23214,173.482,30.686,0.0
23247,173.583,30.776,0.0
23281,173.827,30.977,0.0
23314,174.061,31.227,0.0
23347,174.317,31.517,0.0
23381,174.57,31.775,0.0
23414,174.806,32.031,0.0
23447,175.056,32.28,0.0
23481,175.193,32.48,0.0
23514,175.327,32.642,0.0
23547,175.43,32.81,0.0
23581,175.629,33.031,0.0
23613,175.754,33.225,0.0
23647,175.95,33.438,0.0
23680,176.181,33.693,0.0
23714,176.389,33.931,0.0
23747,176.451,34.107,0.0
23780,176.614,34.287,0.0
23814,176.815,34.516,0.0
23847,176.955,34.711,0.0
23880,177.082,34.922,0.0
23914,176.305,34.529,0.0
23947,173.841,32.526,0.0
23980,171.877,30.488,0.0
24014,171.766,29.874,0.0
24047,172.57,30.211,0.0
24080,173.131,30.583,0.0
24113,173.262,30.69,0.0
24147,173.141,30.566,0.0
24180,173.393,30.693,0.0
24213,173.805,31.041,0.0
24247,173.974,31.283,0.0
24280,173.897,31.311,0.0
24313,173.866,31.294,0.0
24347,173.978,31.405,0.0
24380,174.184,31.599,0.0
24413,174.531,31.903,0.0
24446,174.815,32.216,0.0
24480,175.032,32.49,0.0
24513,175.197,32.719,0.0
24546,175.378,32.95,0.0
24580,175.494,33.129,0.0
24613,175.547,33.25,0.0
24646,175.692,33.444,0.0
24680,175.862,33.632,0.0
24713,175.971,33.809,0.0
24746,176.129,34.013,0.0
24780,176.276,34.221,0.0
24813,176.397,34.4,0.0
24846,176.621,34.639,0.0
24879,176.867,34.913,0.0
24913,176.851,35.06,0.0
24946,175.31,34.04,0.0
24979,172.998,31.919,0.0
25013,171.949,30.586,0.0
25046,172.349,30.503,0.0
25079,173.175,30.994,0.0
25113,173.585,31.349,0.0
25146,173.597,31.364,0.0
25179,173.596,31.362,0.0
25213,173.772,31.553,0.0
25246,173.793,31.651,0.0
25279,173.646,31.584,0.0
25312,173.464,31.463,0.0
25346,173.584,31.544,0.0
25379,173.799,31.735,0.0
25412,174.152,32.036,0.0
25446,174.395,32.33,0.0
25479,174.631,32.594,0.0
25512,174.791,32.807,0.0
25546,174.874,32.954,0.0
25579,175.014,33.131,0.0
25612,175.148,33.267,0.0
25646,175.203,33.384,0.0
25679,175.276,33.486,0.0
25712,175.484,33.695,0.0
25745,175.71,33.944,0.0
25779,175.506,33.951,0.0
25812,173.849,32.744,0.0
25844,171.92,30.898,0.0
25879,171.297,29.955,0.0
25912,171.703,29.98,0.0
25945,172.408,30.382,0.0
25979,172.749,30.651,0.0
26012,172.653,30.571,0.0
26045,172.889,30.738,0.0
26078,173.279,31.067,0.0
26112,173.236,31.146,0.0
26145,173.122,31.067,0.0
26178,173.104,31.035,0.0
26212,173.261,31.138,0.0
26245,173.618,31.441,0.0
26278,173.958,31.756,0.0
26312,174.232,32.06,0.0
26344,174.397,32.258,0.0
26378,174.588,32.492,0.0
26412,174.723,32.658,0.0
26445,174.766,32.75,0.0
26478,174.828,32.855,0.0
26511,174.995,33.017,0.0
26545,175.204,33.222,0.0
26578,175.518,33.534,0.0
26611,175.222,33.484,0.0
26645,173.169,31.936,0.0
26678,171.247,30.02,0.0
26711,170.89,29.26,0.0
26745,171.415,29.378,0.0
26778,171.769,29.576,0.0
26811,171.73,29.528,0.0
26844,171.616,29.377,0.0
26878,171.906,29.507,0.0
26911,172.395,29.886,0.0
26944,172.644,30.179,0.0
26978,172.607,30.216,0.0
27011,172.548,30.167,0.0
27044,172.717,30.258,0.0
27078,172.924,30.445,0.0
27111,173.167,30.691,0.0
27144,173.463,30.972,0.0
27178,173.83,31.311,0.0
27211,173.949,31.514,0.0
27244,174.076,31.679,0.0
27278,174.264,31.873,0.0
27311,174.339,32.002,0.0
27344,174.415,32.139,0.0
27377,174.579,32.295,0.0
27411,174.701,32.484,0.0
27444,174.793,32.631,0.0
27477,174.983,32.84,0.0
27511,175.197,33.09,0.0
27544,174.736,32.923,0.0
27577,172.528,31.236,0.0
27611,170.59,29.302,0.0
27644,170.307,28.628,0.0
27677,170.775,28.767,0.0
27711,171.207,29.0,0.0
27744,171.138,28.914,0.0
27777,170.882,28.683,0.0
27810,171.257,28.85,0.0
27844,171.833,29.306,0.0
27877,172.089,29.607,0.0
27910,172.098,29.665,0.0
27944,172.069,29.69,0.0
27977,172.077,29.706,0.0
28010,172.314,29.914,0.0
28044,172.65,30.202,0.0
28077,172.955,30.513,0.0
28110,173.194,30.771,0.0
28143,173.392,31.005,0.0
28177,173.457,31.156,0.0
28210,173.589,31.327,0.0
28243,173.778,31.544,0.0
28277,173.935,31.729,0.0
28310,174.086,31.916,0.0
28343,174.288,32.137,0.0
28377,174.422,32.314,0.0
28410,174.577,32.51,0.0
28443,174.719,32.684,0.0
28477,174.936,32.925,0.0
28510,175.078,33.135,0.0
28543,174.041,32.559,0.0
28575,171.634,30.555,0.0
28610,170.244,29.0,0.0
28643,170.362,28.732,0.0
28676,170.949,29.03,0.0
28710,171.258,29.236,0.0
28743,171.079,29.105,0.0
28776,171.062,29.022,0.0
28810,171.475,29.32,0.0
28843,171.923,29.726,0.0
28876,172.0,29.911,0.0
28910,171.976,29.94,0.0
28943,171.975,29.955,0.0
28976,172.141,30.109,0.0
29009,172.396,30.357,0.0
29043,172.736,30.67,0.0
29075,172.997,30.977,0.0
29109,173.17,31.199,0.0
29143,173.261,31.364,0.0
29176,173.453,31.597,0.0
29209,173.612,31.782,0.0
29243,173.724,31.94,0.0
29276,173.882,32.147,0.0
29309,174.07,32.36,0.0
29343,174.166,32.53,0.0
29376,174.321,32.725,0.0
29409,174.472,32.941,0.0
29442,174.672,33.18,0.0
29476,174.875,33.425,0.0
29509,173.756,32.794,0.0
29542,171.377,30.808,0.0
29575,170.226,29.439,0.0
29609,170.485,29.288,0.0
29642,171.076,29.612,0.0
29676,171.398,29.854,0.0
29709,171.41,29.858,0.0
29742,171.562,29.943,0.0
29776,171.965,30.287,0.0
29809,172.222,30.562,0.0
29842,172.192,30.61,0.0
29875,172.041,30.524,0.0
29909,172.096,30.574,0.0
29942,172.357,30.806,0.0
29975,172.639,31.08,0.0
30009,172.926,31.367,0.0
30042,173.166,31.645,0.0
30075,173.407,31.901,0.0
30109,173.511,32.076,0.0
30142,173.601,32.236,0.0
30175,173.69,32.349,0.0
30208,173.745,32.468,0.0
30242,173.851,32.613,0.0
30275,174.079,32.851,0.0
30308,174.335,33.1,0.0
30342,174.435,33.324,0.0
30375,173.199,32.557,0.0
30408,170.94,30.63,0.0
30442,169.923,29.375,0.0
30475,170.191,29.238,0.0
30507,170.827,29.589,0.0
30542,171.157,29.827,0.0
30575,171.155,29.789,0.0
30608,171.321,29.892,0.0
30641,171.723,30.211,0.0
30675,171.853,30.408,0.0
30708,171.731,30.356,0.0
30741,171.619,30.263,0.0
30775,171.741,30.348,0.0
30808,172.029,30.6,0.0
30841,172.323,30.876,0.0
30875,172.631,31.175,0.0
30908,172.934,31.467,0.0
30941,173.141,31.7,0.0
30975,173.323,31.9,0.0
31007,173.404,32.049,0.0
31041,173.418,32.105,0.0
31074,173.526,32.234,0.0
31108,173.775,32.449,0.0
31141,173.951,32.695,0.0
31174,173.057,32.206,0.0
31208,170.788,30.34,0.0
31241,169.417,28.797,0.0
31274,169.535,28.466,0.0
31308,170.129,28.735,0.0
31341,170.334,28.867,0.0
31374,170.271,28.767,0.0
31408,170.267,28.675,0.0
31441,170.783,29.032,0.0
31474,171.218,29.424,0.0
31507,171.312,29.594,0.0
31541,171.197,29.538,0.0
31574,171.193,29.555,0.0
31607,171.319,29.662,0.0
31641,171.63,29.909,0.0
31674,171.937,30.211,0.0
31707,172.194,30.472,0.0
31741,172.45,30.739,0.0
31774,172.594,30.918,0.0
31807,172.699,31.075,0.0
31841,172.839,31.234,0.0
31874,172.936,31.364,0.0
31907,173.033,31.498,0.0
31940,173.123,31.618,0.0
31974,173.237,31.773,0.0
32007,173.479,32.0,0.0
32040,173.658,32.217,0.0
32074,172.622,31.661,0.0
32107,170.12,29.586,0.0
32140,168.753,28.043,0.0
32174,168.858,27.695,0.0
32207,169.362,27.9,0.0
32240,169.634,28.049,0.0
32273,169.511,27.91,0.0
32307,169.46,27.811,0.0
32340,169.885,28.081,0.0
32373,170.403,28.526,0.0
32407,170.555,28.749,0.0
32440,170.486,28.748,0.0
32473,170.462,28.731,0.0
32507,170.631,28.868,0.0
32540,170.886,29.101,0.0
32573,171.194,29.38,0.0
32607,171.524,29.7,0.0
32640,171.683,29.916,0.0
32673,171.838,30.104,0.0
32706,172.042,30.316,0.0
32740,172.228,30.515,0.0
32773,172.349,30.675,0.0
32806,172.404,30.8,0.0
32840,172.619,31.003,0.0
32873,172.891,31.262,0.0
32906,173.054,31.466,0.0
32940,173.181,31.64,0.0
32973,173.477,31.913,0.0
33006,173.759,32.187,0.0
33040,173.885,32.396,0.0
33073,172.912,31.884,0.0
33106,170.463,29.864,0.0
33139,168.887,28.16,0.0
33173,168.974,27.78,0.0
33206,169.687,28.137,0.0
33238,170.127,28.466,0.0
33273,170.038,28.408,0.0
33306,170.047,28.338,0.0
33339,170.416,28.611,0.0
33373,170.817,28.986,0.0
33406,171.029,29.226,0.0
33439,171.018,29.271,0.0
33473,171.021,29.291,0.0
33506,171.156,29.429,0.0
33539,171.398,29.647,0.0
33572,171.694,29.938,0.0
33606,172.002,30.265,0.0
33639,172.22,30.529,0.0
33672,172.434,30.773,0.0
33706,172.586,30.962,0.0
33738,172.779,31.181,0.0
33772,172.928,31.382,0.0
33806,173.044,31.536,0.0
33839,173.181,31.701,0.0
33872,173.33,31.888,0.0
33906,173.579,32.121,0.0
33939,173.833,32.399,0.0
33972,174.12,32.706,0.0
34005,173.794,32.656,0.0
34039,171.758,31.164,0.0
34072,169.731,29.207,0.0
34105,169.333,28.394,0.0
34139,169.986,28.638,0.0
34172,170.766,29.174,0.0
34205,171.008,29.41,0.0
34238,170.979,29.391,0.0
34272,171.215,29.566,0.0
34305,171.514,29.884,0.0
34339,171.474,29.958,0.0
34372,171.385,29.927,0.0
34405,171.379,29.902,0.0
34438,171.538,30.026,0.0
34472,171.823,30.291,0.0
34505,172.243,30.677,0.0
34538,172.512,30.978,0.0
34572,172.728,31.234,0.0
34605,172.931,31.47,0.0
34638,173.084,31.677,0.0
34672,173.196,31.822,0.0
34705,173.269,31.936,0.0
34738,173.33,32.057,0.0
34771,173.495,32.24,0.0
34805,173.708,32.457,0.0
34838,173.599,32.514,0.0
34871,171.977,31.358,0.0
34905,169.974,29.439,0.0
34938,169.376,28.487,0.0
34971,169.876,28.581,0.0
35005,170.502,28.97,0.0
35038,170.726,29.173,0.0
35071,170.807,29.219,0.0
35105,171.14,29.454,0.0
35138,171.468,29.773,0.0
35171,171.463,29.859,0.0
35204,171.304,29.763,0.0
35238,171.208,29.682,0.0
35271,171.41,29.825,0.0
35304,171.772,30.116,0.0
35338,172.104,30.455,0.0
35371,172.408,30.752,0.0
35404,172.697,31.049,0.0
35438,172.847,31.253,0.0
35471,173.041,31.479,0.0
35504,173.098,31.583,0.0
35538,173.169,31.704,0.0
35571,173.325,31.848,0.0
35604,173.57,32.068,0.0
35637,173.657,32.25,0.0
35671,172.481,31.516,0.0
35704,170.068,29.452,0.0
35737,168.848,27.954,0.0
35771,169.08,27.724,0.0
35804,169.703,28.026,0.0
35837,169.94,28.172,0.0
35871,169.826,28.042,0.0
35904,169.881,28.02,0.0
35937,170.353,28.349,0.0
35971,170.858,28.779,0.0
36004,170.935,28.92,0.0
36037,170.862,28.914,0.0
36070,170.852,28.897,0.0
36104,171.042,29.043,0.0
36137,171.38,29.331,0.0
36170,171.667,29.615,0.0
36204,171.966,29.899,0.0
36237,172.174,30.166,0.0
36270,172.29,30.329,0.0
36304,172.471,30.53,0.0
36337,172.591,30.679,0.0
36370,172.706,30.831,0.0
36403,172.853,30.983,0.0
36437,172.981,31.138,0.0
36469,173.125,31.302,0.0
36503,173.346,31.525,0.0
36537,173.615,31.791,0.0
36570,173.345,31.76,0.0
36603,171.258,30.206,0.0
36637,169.134,28.101,0.0
36670,168.711,27.262,0.0
36703,169.289,27.429,0.0
36737,169.766,27.712,0.0
36770,169.756,27.688,0.0
36803,169.542,27.482,0.0
36836,169.82,27.6,0.0
36870,170.381,28.04,0.0
36903,170.75,28.409,0.0
36936,170.734,28.483,0.0
36969,170.665,28.457,0.0
37003,170.764,28.53,0.0
37036,170.983,28.718,0.0
37070,171.306,29.009,0.0
37103,171.658,29.338,0.0
37136,171.868,29.597,0.0
37170,172.037,29.803,0.0
37203,172.277,30.035,0.0
37236,172.475,30.256,0.0
37269,172.542,30.382,0.0
37303,172.702,30.54,0.0
37336,172.909,30.768,0.0
37369,173.117,30.98,0.0
37403,173.327,31.203,0.0
37436,173.554,31.448,0.0
37469,173.694,31.62,0.0
37503,173.9,31.863,0.0
37536,174.159,32.135,0.0
37569,174.053,32.221,0.0
37603,172.221,30.934,0.0
37636,169.8,28.668,0.0
37669,169.061,27.564,0.0
37702,169.502,27.576,0.0
37736,170.161,27.97,0.0
37769,170.353,28.145,0.0
37802,170.22,28.035,0.0
37836,170.454,28.117,0.0
37869,170.917,28.518,0.0
37902,171.206,28.838,0.0
37936,171.253,28.948,0.0
37969,171.285,28.984,0.0
38002,171.334,29.047,0.0
38036,171.534,29.242,0.0
38069,171.856,29.543,0.0
38102,172.251,29.89,0.0
38135,172.508,30.205,0.0
38169,172.692,30.426,0.0
38202,172.936,30.686,0.0
38235,173.04,30.866,0.0
38269,173.12,31.003,0.0
38302,173.31,31.211,0.0
38335,173.49,31.423,0.0
38369,173.599,31.603,0.0
38402,173.782,31.787,0.0
38435,173.964,32.014,0.0
38468,174.196,32.273,0.0
38502,174.496,32.584,0.0
38535,174.507,32.748,0.0
38568,172.857,31.638,0.0
38602,170.539,29.483,0.0
38635,169.721,28.308,0.0
38668,170.146,28.313,0.0
38702,170.934,28.808,0.0
38735,171.341,29.142,0.0
38768,171.316,29.142,0.0
38802,171.526,29.314,0.0
38835,171.828,29.61,0.0
38868,171.864,29.748,0.0
38901,171.667,29.653,0.0
38935,171.586,29.581,0.0
38968,171.758,29.712,0.0
39001,172.062,29.978,0.0
39035,172.362,30.29,0.0
39068,172.66,30.601,0.0
39101,172.928,30.877,0.0
39135,173.174,31.151,0.0
39168,173.272,31.335,0.0
39200,173.387,31.47,0.0
39235,173.485,31.615,0.0
39268,173.615,31.767,0.0
39301,173.749,31.939,0.0
39334,173.983,32.165,0.0
39368,174.265,32.446,0.0
39401,174.404,32.649,0.0
39434,173.28,31.98,0.0
39468,170.819,29.871,0.0
39501,169.511,28.291,0.0
39534,169.832,28.092,0.0
39568,170.574,28.51,0.0
39601,170.991,28.834,0.0
39634,170.987,28.84,0.0
39668,171.086,28.887,0.0
39700,171.489,29.23,0.0
39734,171.713,29.498,0.0
39767,171.611,29.476,0.0
39801,171.53,29.41,0.0
39834,171.572,29.434,0.0
39867,171.828,29.66,0.0
39901,172.22,29.986,0.0
39934,172.51,30.304,0.0
39967,172.792,30.602,0.0
40001,173.0,30.854,0.0
40034,173.182,31.06,0.0
40067,173.328,31.239,0.0
40101,173.463,31.416,0.0
40134,173.543,31.547,0.0
40167,173.68,31.693,0.0
40200,173.858,31.896,0.0
40234,174.102,32.122,0.0
40267,174.314,32.368,0.0
40300,174.099,32.373,0.0
40334,171.997,30.822,0.0
40367,169.592,28.505,0.0
40400,168.883,27.394,0.0
40434,169.402,27.46,0.0
40467,169.901,27.75,0.0
40500,170.002,27.822,0.0
40533,169.863,27.686,0.0
40567,170.12,27.808,0.0
40600,170.613,28.195,0.0
40632,170.931,28.532,0.0
40667,170.928,28.608,0.0
40700,170.902,28.6,0.0
40733,171.046,28.707,0.0
40767,171.272,28.874,0.0
40800,171.616,29.184,0.0
40833,171.961,29.529,0.0
40867,172.194,29.782,0.0
40900,172.421,30.056,0.0
40933,172.696,30.297,0.0
40966,172.876,30.502,0.0
41000,173.065,30.712,0.0
41033,173.179,30.872,0.0
41066,173.347,31.065,0.0
41100,173.632,31.339,0.0
41132,173.808,31.546,0.0
41166,173.996,31.771,0.0
41200,174.206,31.997,0.0
41233,174.391,32.206,0.0
41266,174.625,32.467,0.0
41300,174.644,32.615,0.0
41333,172.952,31.503,0.0
41366,170.235,29.015,0.0
41399,169.076,27.492,0.0
41433,169.41,27.34,0.0
41466,170.078,27.714,0.0
41499,170.392,27.943,0.0
41533,170.307,27.864,0.0
41566,170.297,27.788,0.0
41599,170.662,28.063,0.0
41632,171.125,28.467,0.0
41666,171.224,28.635,0.0
41699,171.16,28.634,0.0
41733,171.187,28.644,0.0
41766,171.381,28.816,0.0
41799,171.681,29.072,0.0
41832,172.007,29.397,0.0
41866,172.331,29.717,0.0
41899,172.595,29.981,0.0
41932,172.809,30.225,0.0
41966,173.034,30.48,0.0
41999,173.186,30.685,0.0
42032,173.308,30.853,0.0
42066,173.488,31.063,0.0
42099,173.707,31.295,0.0
42132,173.918,31.536,0.0
42166,174.082,31.755,0.0
42199,174.198,31.937,0.0
42232,174.369,32.137,0.0
42265,174.628,32.412,0.0
42299,174.855,32.672,0.0
42332,174.896,32.841,0.0
42365,173.279,31.814,0.0
42399,170.576,29.373,0.0
42432,169.299,27.796,0.0
42465,169.575,27.599,0.0
42499,170.364,28.048,0.0
42532,170.749,28.377,0.0
42565,170.541,28.282,0.0
42599,170.426,28.15,0.0
42632,170.722,28.391,0.0
42665,171.042,28.714,0.0
42698,171.074,28.807,0.0
42732,171.062,28.819,0.0
42765,171.023,28.81,0.0
42798,171.142,28.927,0.0
42832,171.419,29.194,0.0
42865,171.775,29.532,0.0
42898,172.046,29.816,0.0
42932,172.277,30.099,0.0
42965,172.442,30.3,0.0
42998,172.669,30.545,0.0
43031,172.848,30.759,0.0
43065,172.951,30.922,0.0
43098,173.099,31.096,0.0
43131,173.281,31.296,0.0
43165,173.444,31.484,0.0
43198,173.668,31.736,0.0
43231,173.958,32.031,0.0
43265,173.603,31.999,0.0
43298,171.45,30.385,0.0
43331,169.416,28.365,0.0
43365,168.97,27.545,0.0
43398,169.591,27.754,0.0
43431,170.323,28.252,0.0
43464,170.734,28.624,0.0
43498,170.819,28.714,0.0
43531,171.065,28.94,0.0
43564,171.254,29.172,0.0
43598,171.191,29.204,0.0
43631,170.949,29.051,0.0
43664,170.842,28.954,0.0
43698,171.043,29.088,0.0
43731,171.351,29.363,0.0
43764,171.737,29.731,0.0
43798,172.005,30.016,0.0
43831,172.314,30.311,0.0
43863,172.582,30.603,0.0
43897,172.767,30.813,0.0
43931,172.852,30.959,0.0
43964,172.96,31.101,0.0
43997,173.117,31.268,0.0
44031,173.378,31.525,0.0
44064,173.532,31.742,0.0
44097,172.42,31.112,0.0
44131,169.927,28.979,0.0
44164,168.525,27.372,0.0
44197,168.735,27.136,0.0
44231,169.437,27.5,0.0
44264,169.925,27.861,0.0
44297,169.947,27.899,0.0
44330,170.052,27.96,0.0
44363,170.434,28.27,0.0
44397,170.657,28.547,0.0
44430,170.595,28.577,0.0
44464,170.486,28.487,0.0
44497,170.562,28.516,0.0
44530,170.86,28.749,0.0
44564,171.221,29.052,0.0
44597,171.579,29.391,0.0
44630,171.881,29.699,0.0
44663,172.169,30.002,0.0
44697,172.369,30.22,0.0
44730,172.483,30.38,0.0
44763,172.579,30.522,0.0
44797,172.699,30.661,0.0
44830,172.926,30.863,0.0
44863,173.222,31.156,0.0
44897,173.036,31.196,0.0
44930,171.108,29.795,0.0
44963,168.77,27.605,0.0
44997,167.997,26.506,0.0
45030,168.457,26.566,0.0
45063,169.017,26.883,0.0
45096,169.156,26.963,0.0
45130,168.981,26.836,0.0
45163,169.152,26.904,0.0
45196,169.781,27.363,0.0
45230,170.217,27.762,0.0
45263,170.192,27.847,0.0
45296,170.173,27.852,0.0
45330,170.244,27.902,0.0
45363,170.527,28.131,0.0
45396,170.878,28.422,0.0
45430,171.251,28.762,0.0
45463,171.524,29.072,0.0
45496,171.749,29.317,0.0
45529,171.992,29.567,0.0
45563,172.122,29.75,0.0
45596,172.285,29.914,0.0
45629,172.469,30.128,0.0
45663,172.674,30.335,0.0
45696,172.848,30.541,0.0
45729,173.016,30.744,0.0
45763,173.197,30.941,0.0
45796,173.405,31.161,0.0
45829,173.69,31.44,0.0
45863,173.572,31.511,0.0
45896,171.574,30.106,0.0
45929,169.009,27.707,0.0
45962,168.196,26.554,0.0
45996,168.785,26.686,0.0
46029,169.35,27.022,0.0
46062,169.456,27.107,0.0
46096,169.266,26.938,0.0
46129,169.429,27.027,0.0
46162,169.973,27.443,0.0
46196,170.438,27.859,0.0
46229,170.524,28.016,0.0
46262,170.46,27.994,0.0
46296,170.515,28.042,0.0
46329,170.751,28.244,0.0
46362,171.127,28.564,0.0
46395,171.463,28.891,0.0
46429,171.739,29.175,0.0
46462,172.027,29.458,0.0
46495,172.22,29.686,0.0
46529,172.374,29.889,0.0
46562,172.579,30.11,0.0
46594,172.764,30.318,0.0
46629,172.881,30.498,0.0
46662,173.094,30.717,0.0
46695,173.314,30.965,0.0
46729,173.498,31.201,0.0
46762,173.727,31.437,0.0
46795,173.945,31.693,0.0
46828,174.138,31.915,0.0
46862,174.385,32.178,0.0
46895,174.534,32.425,0.0
46928,173.358,31.77,0.0
46962,170.611,29.432,0.0
46995,168.913,27.557,0.0
47028,168.917,27.127,0.0
47062,169.704,27.54,0.0
47094,170.217,27.932,0.0
47128,170.228,27.949,0.0
47161,170.237,27.931,0.0
47195,170.604,28.224,0.0
47228,170.943,28.559,0.0
47261,171.049,28.745,0.0
47295,171.006,28.765,0.0
47328,170.935,28.736,0.0
47361,171.038,28.841,0.0
47395,171.407,29.158,0.0
47428,171.752,29.516,0.0
47461,172.003,29.781,0.0
47495,172.24,30.055,0.0
47528,172.46,30.302,0.0
47561,172.632,30.518,0.0
47594,172.762,30.699,0.0
47628,172.876,30.87,0.0
47661,172.998,31.042,0.0
47694,173.101,31.189,0.0
47728,173.236,31.374,0.0
47761,173.425,31.583,0.0
47794,173.649,31.827,0.0
47828,173.938,32.118,0.0
47861,174.103,32.354,0.0
47894,172.716,31.519,0.0
47928,170.146,29.241,0.0
47961,168.916,27.725,0.0
47994,169.171,27.536,0.0
48027,169.919,27.982,0.0
48061,170.384,28.362,0.0
48094,170.488,28.449,0.0
48127,170.644,28.551,0.0
48161,171.026,28.898,0.0
48194,171.163,29.072,0.0
48227,170.949,28.986,0.0
48261,170.832,28.884,0.0
48294,170.874,28.92,0.0
48327,171.074,29.096,0.0
48361,171.44,29.404,0.0
48394,171.821,29.775,0.0
48427,172.128,30.075,0.0
48460,172.357,30.346,0.0
48494,172.585,30.604,0.0
48527,172.708,30.772,0.0
48560,172.76,30.887,0.0
48594,172.862,31.022,0.0
48627,173.001,31.196,0.0
48660,173.168,31.389,0.0
48694,173.283,31.566,0.0
48727,172.631,31.285,0.0
48760,170.178,29.33,0.0
48794,168.324,27.37,0.0
48827,168.224,26.807,0.0
48860,168.899,27.116,0.0
48893,169.449,27.497,0.0
48927,169.586,27.598,0.0
48960,169.533,27.547,0.0
48993,169.848,27.751,0.0
49027,170.284,28.136,0.0
49060,170.48,28.366,0.0
49093,170.375,28.354,0.0
49127,170.307,28.288,0.0
49160,170.511,28.428,0.0
49193,170.845,28.691,0.0
49226,171.223,29.034,0.0
49260,171.498,29.326,0.0
49293,171.78,29.626,0.0
49325,172.076,29.925,0.0
49360,172.283,30.158,0.0
49393,172.478,30.359,0.0
49426,172.627,30.534,0.0
49460,172.781,30.717,0.0
49493,172.928,30.883,0.0
49526,173.093,31.062,0.0
49560,173.247,31.263,0.0
49593,173.431,31.473,0.0
49626,173.688,31.737,0.0
49659,173.29,31.626,0.0
49693,170.826,29.737,0.0
49726,168.437,27.372,0.0
49759,168.079,26.514,0.0
49793,168.683,26.69,0.0
49825,169.243,27.041,0.0
49859,169.346,27.11,0.0
49893,169.217,26.988,0.0
49926,169.365,27.057,0.0
49959,169.85,27.421,0.0
49993,170.21,27.797,0.0
50026,170.274,27.9,0.0
50059,170.233,27.887,0.0
50092,170.302,27.95,0.0
50126,170.573,28.17,0.0
50159,170.922,28.466,0.0
50192,171.264,28.783,0.0
50226,171.57,29.098,0.0
50259,171.76,29.325,0.0
50292,172.009,29.576,0.0
50325,172.245,29.811,0.0
50359,172.459,30.034,0.0
50392,172.52,30.164,0.0
50425,172.757,30.389,0.0
50459,173.003,30.63,0.0
50492,173.237,30.883,0.0
50525,173.478,31.152,0.0
50559,173.734,31.394,0.0
50592,173.905,31.611,0.0
50625,173.991,31.762,0.0
50659,174.217,31.996,0.0
50692,174.449,32.256,0.0
50725,174.091,32.206,0.0
50759,171.765,30.472,0.0
50792,169.118,27.907,0.0
50825,168.402,26.761,0.0
50858,169.072,26.943,0.0
50892,169.962,27.503,0.0
50925,170.22,27.752,0.0
50958,170.076,27.656,0.0
50992,170.183,27.661,0.0
51025,170.597,28.015,0.0
51058,170.873,28.314,0.0
51092,170.996,28.46,0.0
51125,170.895,28.419,0.0
51158,170.994,28.492,0.0
51192,171.254,28.72,0.0
51225,171.618,29.066,0.0
51257,171.904,29.358,0.0
51291,172.22,29.673,0.0
51325,172.474,29.966,0.0
51358,172.668,30.191,0.0
51391,172.831,30.404,0.0
51425,173.042,30.624,0.0
51458,173.185,30.817,0.0
51491,173.319,31.008,0.0
51525,173.534,31.228,0.0
51558,173.723,31.443,0.0
51591,173.916,31.685,0.0
51625,174.084,31.902,0.0
51658,174.295,32.135,0.0
51691,174.586,32.441,0.0
51724,174.73,32.687,0.0
51757,173.353,31.861,0.0
51791,170.633,29.461,0.0
51824,169.103,27.653,0.0
51858,169.295,27.361,0.0
51891,170.161,27.836,0.0
51924,170.775,28.306,0.0
51958,170.91,28.486,0.0
51991,170.996,28.535,0.0
52024,171.323,28.83,0.0
52058,171.463,29.033,0.0
52091,171.322,28.994,0.0
52124,171.107,28.858,0.0
52157,171.208,28.884,0.0
52191,171.412,29.081,0.0
52224,171.782,29.394,0.0
52257,172.129,29.758,0.0
52291,172.362,30.04,0.0
52324,172.56,30.292,0.0
52357,172.77,30.53,0.0
52391,172.927,30.726,0.0
52424,173.037,30.862,0.0
52457,173.174,31.021,0.0
52491,173.215,31.139,0.0
52524,173.283,31.262,0.0
52557,173.467,31.434,0.0
52590,173.723,31.684,0.0
52624,173.878,31.919,0.0
52657,172.68,31.221,0.0
52690,170.071,28.942,0.0
52724,168.632,27.255,0.0
52757,168.852,26.991,0.0
52790,169.598,27.383,0.0
52824,170.083,27.757,0.0
52857,170.204,27.891,0.0
52890,170.247,27.923,0.0
52923,170.562,28.193,0.0
52957,170.737,28.404,0.0
52990,170.667,28.412,0.0
53023,170.467,28.257,0.0
53057,170.553,28.283,0.0
53090,170.815,28.516,0.0
53123,171.208,28.835,0.0
53157,171.57,29.205,0.0
53190,171.863,29.512,0.0
53223,172.071,29.746,0.0
53257,172.256,29.971,0.0
53290,172.385,30.138,0.0
53323,172.411,30.228,0.0
53356,172.479,30.354,0.0
53390,172.611,30.489,0.0
53423,172.801,30.685,0.0
53456,173.04,30.912,0.0
53490,173.239,31.154,0.0
53523,172.374,30.705,0.0
53556,169.841,28.632,0.0
53590,167.991,26.673,0.0
53623,167.849,26.104,0.0
53656,168.5,26.359,0.0
53690,168.949,26.677,0.0
53723,168.93,26.65,0.0
53756,168.858,26.546,0.0
53789,169.208,26.764,0.0
53823,169.699,27.188,0.0
53856,169.904,27.44,0.0
53889,169.823,27.421,0.0
53923,169.764,27.397,0.0
53956,169.876,27.473,0.0
53988,170.161,27.714,0.0
54023,170.472,27.991,0.0
54056,170.802,28.32,0.0
54089,170.994,28.562,0.0
54123,171.165,28.766,0.0
54156,171.292,28.95,0.0
54189,171.411,29.083,0.0
54222,171.528,29.22,0.0
54256,171.67,29.385,0.0
54289,171.825,29.571,0.0
54322,171.957,29.74,0.0
54356,172.183,29.942,0.0
54389,172.364,30.119,0.0
54422,172.541,30.313,0.0
54456,172.776,30.558,0.0
54488,172.257,30.378,0.0
54522,169.708,28.419,0.0
54556,167.568,26.265,0.0
54589,167.164,25.492,0.0
54622,167.691,25.658,0.0
54655,168.265,26.042,0.0
54689,168.312,26.112,0.0
54722,168.137,25.938,0.0
54755,168.364,26.058,0.0
54789,168.914,26.488,0.0
54822,169.313,26.874,0.0
54855,169.323,26.963,0.0
54889,169.263,26.922,0.0
54922,169.318,26.99,0.0
54955,169.525,27.177,0.0
54988,169.868,27.491,0.0
55022,170.197,27.787,0.0
55055,170.404,28.036,0.0
55088,170.604,28.257,0.0
55122,170.769,28.449,0.0
55155,170.919,28.62,0.0
55188,171.107,28.803,0.0
55222,171.252,28.984,0.0
55255,171.403,29.138,0.0
55288,171.638,29.378,0.0
55322,171.793,29.554,0.0
55355,171.965,29.763,0.0
55388,172.123,29.955,0.0
55422,172.299,30.171,0.0
55455,172.589,30.427,0.0
55488,172.631,30.605,0.0
55521,171.213,29.73,0.0
55555,168.533,27.424,0.0
55588,167.18,25.892,0.0
55621,167.388,25.657,0.0
55655,168.109,26.08,0.0
55688,168.511,26.398,0.0
55721,168.531,26.437,0.0
55755,168.506,26.374,0.0
55788,168.916,26.699,0.0
55821,169.322,27.088,0.0
55854,169.446,27.26,0.0
55888,169.351,27.249,0.0
55921,169.379,27.284,0.0
55954,169.543,27.428,0.0
55988,169.844,27.711,0.0
56021,170.172,28.025,0.0
56054,170.428,28.297,0.0
56088,170.655,28.542,0.0
56121,170.848,28.765,0.0
56154,171.008,28.974,0.0
56188,171.18,29.153,0.0
56221,171.344,29.352,0.0
56254,171.495,29.531,0.0
56287,171.592,29.678,0.0
56321,171.793,29.893,0.0
56354,172.023,30.126,0.0
56387,172.094,30.268,0.0
56421,172.345,30.511,0.0
56454,172.612,30.801,0.0
56487,172.383,30.818,0.0
56521,170.333,29.35,0.0
56554,168.005,27.136,0.0
56587,167.422,26.192,0.0
56621,167.927,26.299,0.0
56654,168.633,26.796,0.0
56687,168.992,27.122,0.0
56719,168.999,27.149,0.0
56754,169.204,27.327,0.0
56787,169.505,27.622,0.0
56820,169.513,27.737,0.0
56854,169.272,27.609,0.0
56887,169.235,27.562,0.0
56920,169.396,27.701,0.0
56954,169.713,27.975,0.0
56987,170.0,28.276,0.0
57020,170.336,28.602,0.0
57054,170.58,28.862,0.0
57087,170.793,29.092,0.0
57120,170.959,29.278,0.0
57153,171.067,29.422,0.0
57187,171.146,29.532,0.0
57219,171.222,29.628,0.0
57253,171.332,29.771,0.0
57287,171.573,29.994,0.0
57320,171.842,30.241,0.0
57353,172.073,30.505,0.0
57387,171.318,30.149,0.0
57420,168.926,28.202,0.0
57453,167.188,26.389,0.0
57486,167.057,25.855,0.0
57520,167.741,26.192,0.0
57553,168.325,26.615,0.0
57586,168.462,26.758,0.0
57620,168.436,26.747,0.0
57653,168.795,27.012,0.0
57686,169.099,27.314,0.0
57719,169.099,27.404,0.0
57753,169.002,27.342,0.0
57786,169.046,27.356,0.0
57820,169.234,27.503,0.0
57853,169.592,27.795,0.0
57886,169.982,28.154,0.0
57919,170.265,28.444,0.0
57953,170.508,28.707,0.0
57986,170.75,28.946,0.0
58019,170.899,29.134,0.0
58053,171.024,29.29,0.0
58086,171.091,29.411,0.0
58119,171.229,29.553,0.0
58153,171.366,29.709,0.0
58186,171.646,29.956,0.0
58219,171.875,30.208,0.0
58253,171.467,30.09,0.0
58286,169.12,28.321,0.0
58319,166.97,26.189,0.0
58352,166.413,25.291,0.0
58386,166.907,25.439,0.0
58419,167.489,25.785,0.0
58452,167.608,25.891,0.0
58486,167.445,25.767,0.0
58519,167.7,25.896,0.0
58552,168.231,26.333,0.0
58586,168.524,26.629,0.0
58619,168.597,26.756,0.0
58652,168.54,26.726,0.0
58686,168.633,26.804,0.0
58719,168.857,27.005,0.0
58752,169.183,27.289,0.0
58785,169.527,27.615,0.0
58819,169.82,27.909,0.0
58852,170.109,28.17,0.0
58885,170.297,28.392,0.0
58919,170.453,28.573,0.0
58952,170.545,28.702,0.0
58985,170.675,28.843,0.0
59019,170.906,29.068,0.0
59052,171.104,29.273,0.0
59085,171.295,29.465,0.0
59118,171.508,29.662,0.0
59152,171.661,29.852,0.0
59185,171.905,30.067,0.0
59218,172.108,30.315,0.0
59252,170.898,29.584,0.0
59285,168.086,27.2,0.0
59318,166.577,25.493,0.0
59352,166.591,25.091,0.0
59385,167.292,25.444,0.0
59418,167.747,25.748,0.0
59452,167.797,25.804,0.0
59485,167.733,25.714,0.0
59518,168.148,25.975,0.0
59551,168.618,26.384,0.0
59585,168.911,26.663,0.0
59618,168.867,26.681,0.0
59651,168.895,26.707,0.0
59685,169.084,26.853,0.0
59718,169.427,27.124,0.0
59751,169.827,27.449,0.0
59785,170.184,27.803,0.0
59818,170.421,28.057,0.0
59851,170.699,28.336,0.0
59885,170.946,28.562,0.0
59918,171.104,28.769,0.0
59950,171.275,28.94,0.0
59984,171.438,29.114,0.0
60018,171.673,29.352,0.0
60051,171.89,29.571,0.0
60084,172.083,29.773,0.0
60118,172.337,29.992,0.0
60151,172.556,30.241,0.0
60184,172.816,30.492,0.0
60218,173.095,30.749,0.0
60251,172.702,30.653,0.0
60284,170.321,28.794,0.0
60318,167.95,26.463,0.0
60351,167.401,25.505,0.0
60384,167.92,25.685,0.0
60417,168.69,26.209,0.0
60450,169.04,26.522,0.0
60484,168.904,26.448,0.0
60517,169.102,26.574,0.0
60551,169.502,26.944,0.0
60584,169.694,27.161,0.0
60617,169.625,27.171,0.0
60651,169.562,27.125,0.0
60684,169.699,27.209,0.0
60717,169.978,27.444,0.0
60751,170.353,27.78,0.0
60784,170.635,28.076,0.0
60817,170.88,28.342,0.0
60850,171.128,28.609,0.0
60884,171.341,28.841,0.0
60917,171.583,29.065,0.0
60950,171.693,29.215,0.0
60984,171.758,29.31,0.0
61017,171.95,29.505,0.0
61050,172.137,29.687,0.0
61084,172.342,29.895,0.0
61117,172.611,30.18,0.0
61150,172.488,30.262,0.0
61184,170.479,28.765,0.0
61217,168.187,26.569,0.0
61250,167.571,25.622,0.0
61283,168.051,25.757,0.0
61317,168.832,26.333,0.0
61350,169.22,26.685,0.0
61382,169.222,26.718,0.0
61417,169.459,26.912,0.0
61450,169.748,27.215,0.0
61483,169.7,27.257,0.0
61517,169.461,27.099,0.0
61550,169.403,27.012,0.0
61583,169.599,27.158,0.0
61616,169.937,27.438,0.0
61650,170.278,27.749,0.0
61683,170.584,28.058,0.0
61716,170.838,28.301,0.0
61750,170.951,28.505,0.0
61783,171.039,28.618,0.0
61816,171.177,28.746,0.0
61850,171.295,28.875,0.0
61882,171.458,29.034,0.0
61916,171.703,29.28,0.0
61950,171.63,29.338,0.0
61983,169.873,28.082,0.0
62016,167.589,25.956,0.0
62049,166.78,24.873,0.0
62083,167.177,24.941,0.0
62116,167.882,25.42,0.0
62149,168.066,25.61,0.0
62183,167.983,25.579,0.0
62216,168.219,25.724,0.0
62249,168.654,26.115,0.0
62283,168.844,26.371,0.0
62316,168.799,26.393,0.0
62349,168.648,26.272,0.0
62382,168.748,26.343,0.0
62416,169.044,26.576,0.0
62449,169.364,26.884,0.0
62482,169.706,27.204,0.0
62516,169.959,27.46,0.0
62549,170.219,27.729,0.0
62582,170.37,27.917,0.0
62616,170.5,28.054,0.0
62649,170.58,28.155,0.0
62682,170.669,28.262,0.0
62716,170.861,28.431,0.0
62749,171.081,28.651,0.0
62782,170.561,28.435,0.0
62816,168.242,26.574,0.0
62849,166.363,24.732,0.0
62882,165.963,24.095,0.0
62915,166.482,24.329,0.0
62949,166.826,24.594,0.0
62982,166.732,24.551,0.0
63015,166.625,24.468,0.0
63049,167.061,24.739,0.0
63082,167.61,25.198,0.0
63115,167.952,25.55,0.0
63149,167.894,25.562,0.0
63182,167.846,25.532,0.0
63215,168.004,25.665,0.0
63249,168.206,25.865,0.0
63282,168.561,26.15,0.0
63315,168.844,26.434,0.0
63348,169.096,26.695,0.0
63382,169.329,26.913,0.0
63415,169.495,27.103,0.0
63448,169.654,27.257,0.0
63482,169.804,27.43,0.0
63515,169.942,27.566,0.0
63548,170.129,27.755,0.0
63582,170.243,27.889,0.0
63615,170.43,28.054,0.0
63648,170.699,28.297,0.0
63681,170.918,28.525,0.0
63715,170.027,28.044,0.0
63748,167.497,25.966,0.0
63781,165.834,24.279,0.0
63815,165.689,23.89,0.0
63848,166.291,24.229,0.0
63881,166.539,24.417,0.0
63915,166.442,24.362,0.0
63948,166.416,24.29,0.0
63981,166.947,24.664,0.0
64015,167.465,25.115,0.0
64048,167.785,25.427,0.0
64081,167.742,25.431,0.0
64113,167.688,25.421,0.0
64148,167.865,25.56,0.0
64181,168.16,25.796,0.0
64214,168.491,26.089,0.0
64248,168.911,26.442,0.0
64281,169.172,26.706,0.0
64314,169.425,26.932,0.0
64348,169.6,27.122,0.0
64381,169.739,27.297,0.0
64414,169.906,27.475,0.0
64448,170.035,27.614,0.0
64481,170.205,27.798,0.0
64514,170.419,28.009,0.0
64547,170.614,28.221,0.0
64581,170.694,28.364,0.0
64613,170.821,28.509,0.0
64647,171.041,28.712,0.0
64681,171.234,28.919,0.0
64714,171.466,29.15,0.0
64747,170.756,28.837,0.0
64781,168.211,26.813,0.0
64814,166.345,24.946,0.0
64847,166.066,24.383,0.0
64881,166.67,24.716,0.0
64914,167.155,25.084,0.0
64947,167.068,25.052,0.0
64980,167.019,24.972,0.0
65014,167.471,25.311,0.0
65047,168.0,25.76,0.0
65080,168.241,26.04,0.0
65113,168.155,26.032,0.0
65147,168.093,25.986,0.0
65180,168.282,26.149,0.0
65214,168.557,26.404,0.0
65247,168.963,26.757,0.0
65280,169.243,27.047,0.0
65313,169.464,27.269,0.0
65347,169.628,27.471,0.0
65380,169.793,27.661,0.0
65413,169.971,27.851,0.0
65447,170.083,27.994,0.0
65480,170.213,28.145,0.0
65513,170.341,28.307,0.0
65547,170.556,28.5,0.0
65580,170.729,28.692,0.0
65613,170.864,28.859,0.0
65647,171.076,29.088,0.0
65680,171.359,29.341,0.0
65713,171.2,29.376,0.0
65746,169.319,28.025,0.0
65780,167.08,25.927,0.0
65813,166.389,24.98,0.0
65846,166.865,25.133,0.0
65880,167.586,25.627,0.0
65913,167.826,25.839,0.0
65946,167.858,25.851,0.0
65980,168.195,26.123,0.0
66013,168.599,26.467,0.0
66046,168.685,26.626,0.0
66080,168.53,26.554,0.0
66113,168.455,26.493,0.0
66146,168.614,26.633,0.0
66179,168.91,26.866,0.0
66213,169.249,27.171,0.0
66246,169.526,27.447,0.0
66279,169.739,27.669,0.0
66313,170.017,27.94,0.0
66346,170.244,28.152,0.0
66379,170.33,28.306,0.0
66413,170.413,28.418,0.0
66446,170.515,28.547,0.0
66479,170.689,28.7,0.0
66513,170.925,28.929,0.0
66546,171.198,29.177,0.0
66579,170.812,29.081,0.0
66612,168.608,27.397,0.0
66646,166.572,25.421,0.0
66679,166.06,24.625,0.0
66712,166.634,24.838,0.0
66746,167.143,25.202,0.0
66779,167.216,25.278,0.0
66812,167.139,25.193,0.0
66846,167.426,25.41,0.0
66879,167.881,25.815,0.0
66912,168.12,26.087,0.0
66946,168.09,26.099,0.0
66979,168.04,26.067,0.0
67012,168.173,26.159,0.0
67045,168.512,26.427,0.0
67079,168.87,26.758,0.0
67112,169.244,27.085,0.0
67145,169.514,27.368,0.0
67179,169.781,27.628,0.0
67212,169.978,27.832,0.0
67245,170.112,27.991,0.0
67279,170.287,28.155,0.0
67312,170.471,28.342,0.0
67344,170.61,28.507,0.0
67379,170.835,28.721,0.0
67412,171.025,28.912,0.0
67445,171.17,29.06,0.0
67478,171.489,29.349,0.0
67512,171.501,29.471,0.0
67545,169.687,28.242,0.0
67578,166.984,25.831,0.0
67612,165.911,24.518,0.0
67645,166.236,24.474,0.0
67678,166.916,24.903,0.0
67712,167.158,25.089,0.0
67745,167.017,24.967,0.0
67778,167.072,24.961,0.0
67811,167.685,25.393,0.0
67844,168.163,25.807,0.0
67878,168.412,26.071,0.0
67911,168.41,26.091,0.0
67945,168.395,26.078,0.0
67978,168.601,26.242,0.0
68011,168.981,26.547,0.0
68045,169.358,26.866,0.0
68078,169.639,27.16,0.0
68111,169.937,27.427,0.0
68145,170.187,27.679,0.0
68178,170.414,27.901,0.0
68211,170.612,28.099,0.0
68244,170.772,28.284,0.0
68278,170.976,28.475,0.0
68311,171.118,28.645,0.0
68344,171.365,28.874,0.0
68378,171.627,29.127,0.0
68411,171.805,29.343,0.0
68444,171.99,29.539,0.0
68478,172.261,29.794,0.0
68511,172.519,30.064,0.0
68544,172.331,30.094,0.0
68578,170.143,28.526,0.0
68611,167.507,26.054,0.0
68644,166.659,24.893,0.0
68677,167.086,24.938,0.0
68711,167.926,25.476,0.0
68744,168.278,25.752,0.0
68777,168.205,25.72,0.0
68811,168.282,25.767,0.0
68844,168.769,26.135,0.0
68877,169.103,26.485,0.0
68911,169.164,26.61,0.0
68944,169.09,26.574,0.0
68977,169.062,26.586,0.0
69011,169.237,26.748,0.0
69044,169.699,27.099,0.0
69077,170.034,27.432,0.0
69110,170.322,27.73,0.0
69144,170.589,28.012,0.0
69177,170.77,28.232,0.0
69210,171.012,28.472,0.0
69244,171.175,28.659,0.0
69277,171.302,28.811,0.0
69310,171.526,29.03,0.0
69344,171.666,29.202,0.0
69377,171.896,29.426,0.0
69410,172.113,29.676,0.0
69444,172.311,29.9,0.0
69477,172.542,30.142,0.0
69510,172.786,30.406,0.0
69543,172.453,30.364,0.0
69577,170.078,28.536,0.0
69610,167.704,26.234,0.0
69643,167.185,25.364,0.0
69677,167.855,25.622,0.0
69710,168.728,26.243,0.0
69743,169.119,26.623,0.0
69777,169.2,26.698,0.0
69810,169.492,26.924,0.0
69843,169.692,27.186,0.0
69877,169.614,27.203,0.0
69910,169.474,27.099,0.0
69943,169.396,27.011,0.0
69976,169.602,27.149,0.0
70010,169.962,27.431,0.0
70043,170.383,27.805,0.0
70075,170.744,28.146,0.0
70110,171.058,28.453,0.0
70143,171.281,28.712,0.0
70176,171.461,28.941,0.0
70210,171.597,29.105,0.0
70243,171.68,29.224,0.0
70276,171.927,29.435,0.0
70310,172.142,29.644,0.0
70343,172.373,29.872,0.0
70376,172.517,30.089,0.0
70409,170.853,28.985,0.0
70443,168.155,26.604,0.0
70476,167.019,25.24,0.0
70509,167.23,25.05,0.0
70543,168.0,25.542,0.0
70575,168.5,25.934,0.0
70609,168.483,25.956,0.0
70643,168.58,26.018,0.0
70676,169.116,26.433,0.0
70709,169.344,26.704,0.0
70742,169.216,26.671,0.0
70776,169.064,26.574,0.0
70809,169.146,26.637,0.0
70842,169.414,26.846,0.0
70876,169.804,27.182,0.0
70909,170.241,27.579,0.0
70942,170.593,27.913,0.0
70976,170.831,28.163,0.0
71009,171.029,28.379,0.0
71042,171.201,28.584,0.0
71075,171.306,28.727,0.0
71109,171.406,28.854,0.0
71142,171.514,28.991,0.0
71175,171.72,29.164,0.0
71209,171.911,29.402,0.0
71242,171.818,29.46,0.0
71275,169.855,28.096,0.0
71309,167.089,25.628,0.0
71342,166.036,24.356,0.0
71375,166.312,24.274,0.0
71409,167.006,24.689,0.0
71442,167.315,24.913,0.0
71475,167.151,24.822,0.0
71507,167.161,24.784,0.0
71542,167.698,25.197,0.0
71575,168.135,25.569,0.0
71608,168.255,25.758,0.0
71642,168.2,25.724,0.0
71675,168.204,25.726,0.0
71708,168.414,25.905,0.0
71742,168.704,26.152,0.0
71775,169.122,26.527,0.0
71808,169.402,26.81,0.0
71842,169.671,27.05,0.0
71875,169.936,27.29,0.0
71908,170.108,27.478,0.0
71941,170.281,27.668,0.0
71975,170.449,27.84,0.0
72007,170.626,28.04,0.0
72041,170.865,28.262,0.0
72075,171.113,28.505,0.0
72108,171.303,28.726,0.0
72141,171.477,28.921,0.0
72175,171.708,29.162,0.0
72208,171.997,29.42,0.0
72241,172.068,29.609,0.0
72275,170.264,28.445,0.0
72308,167.337,25.878,0.0
72341,165.98,24.385,0.0
72374,166.25,24.253,0.0
72408,167.068,24.743,0.0
72441,167.415,25.049,0.0
72474,167.201,24.915,0.0
72507,167.187,24.879,0.0
72541,167.581,25.18,0.0
72574,167.909,25.515,0.0
72608,168.082,25.711,0.0
72641,167.996,25.683,0.0
72674,167.997,25.686,0.0
72708,168.167,25.841,0.0
72741,168.457,26.099,0.0
72774,168.881,26.461,0.0
72807,169.135,26.715,0.0
72841,169.373,26.957,0.0
72874,169.582,27.183,0.0
72907,169.746,27.364,0.0
72941,169.859,27.495,0.0
72974,169.828,27.58,0.0
73007,170.044,27.742,0.0
73041,170.202,27.917,0.0
73074,170.321,28.081,0.0
73107,170.507,28.283,0.0
73141,170.721,28.503,0.0
73174,170.974,28.737,0.0
73207,170.23,28.397,0.0
73240,167.768,26.464,0.0
73274,165.873,24.61,0.0
73307,165.585,24.044,0.0
73340,166.31,24.413,0.0
73374,167.04,24.928,0.0
73407,167.165,25.087,0.0
73440,167.15,25.085,0.0
73474,167.493,25.366,0.0
73507,167.83,25.684,0.0
73540,167.769,25.712,0.0
73574,167.599,25.597,0.0
73607,167.698,25.63,0.0
73640,168.014,25.875,0.0
73673,168.355,26.172,0.0
73707,168.752,26.534,0.0
73740,169.039,26.818,0.0
73773,169.302,27.084,0.0
73807,169.421,27.241,0.0
73840,169.551,27.41,0.0
73873,169.665,27.55,0.0
73907,169.785,27.691,0.0
73940,169.828,27.77,0.0
73973,169.924,27.893,0.0
74006,170.059,28.046,0.0
74040,170.292,28.254,0.0
74073,170.508,28.487,0.0
74106,169.662,28.061,0.0
74140,167.013,25.982,0.0
74173,165.072,24.129,0.0
74206,164.78,23.567,0.0
74240,165.385,23.864,0.0
74273,165.87,24.211,0.0
74306,165.875,24.216,0.0
74340,165.734,24.122,0.0
74373,166.095,24.36,0.0
74406,166.637,24.787,0.0
74439,166.938,25.109,0.0
74473,166.931,25.14,0.0
74506,166.86,25.114,0.0
74539,166.987,25.235,0.0
74573,167.293,25.476,0.0
74606,167.624,25.765,0.0
74639,168.006,26.123,0.0
74673,168.201,26.341,0.0
74706,168.454,26.598,0.0
74738,168.674,26.813,0.0
74773,168.806,26.965,0.0
74806,168.908,27.111,0.0
74839,169.088,27.285,0.0
74872,169.188,27.416,0.0
74906,169.404,27.615,0.0
74939,169.606,27.82,0.0
74972,169.798,28.006,0.0
75006,169.932,28.17,0.0
75039,170.173,28.376,0.0
75072,170.372,28.608,0.0
75106,169.187,27.946,0.0
75139,166.425,25.71,0.0
75172,164.614,23.931,0.0
75206,164.565,23.554,0.0
75238,165.349,23.972,0.0
75272,165.796,24.295,0.0
75305,165.917,24.394,0.0
75339,165.814,24.316,0.0
75372,166.27,24.609,0.0
75405,166.755,25.01,0.0
75439,167.008,25.288,0.0
75472,166.955,25.296,0.0
75505,166.997,25.321,0.0
75539,167.114,25.429,0.0
75572,167.39,25.668,0.0
75605,167.8,26.022,0.0
75639,168.119,26.323,0.0
75672,168.388,26.596,0.0
75705,168.713,26.879,0.0
75738,168.964,27.134,0.0
75772,169.123,27.309,0.0
75805,169.244,27.458,0.0
75838,169.383,27.604,0.0
75872,169.552,27.786,0.0
75905,169.756,27.966,0.0
75938,169.929,28.169,0.0
75972,170.131,28.38,0.0
76005,170.464,28.664,0.0
76038,170.694,28.925,0.0
76071,169.997,28.627,0.0
76105,167.497,26.652,0.0
76138,165.588,24.775,0.0
76171,165.298,24.202,0.0
76205,166.097,24.594,0.0
76238,166.902,25.138,0.0
76271,167.169,25.394,0.0
76305,167.249,25.448,0.0
76338,167.596,25.726,0.0
76371,167.851,25.991,0.0
76405,167.901,26.105,0.0
76438,167.747,26.007,0.0
76471,167.788,26.015,0.0
76504,168.016,26.198,0.0
76538,168.419,26.516,0.0
76571,168.873,26.912,0.0
76604,169.191,27.221,0.0
76638,169.53,27.505,0.0
76671,169.687,27.716,0.0
76704,169.826,27.881,0.0
76738,169.9,27.993,0.0
76771,169.929,28.059,0.0
76804,170.066,28.192,0.0
76838,170.312,28.415,0.0
76871,170.645,28.701,0.0
76904,170.649,28.825,0.0
76937,168.777,27.521,0.0
76971,166.511,25.456,0.0
77004,165.656,24.389,0.0
77037,166.13,24.488,0.0
77071,166.91,24.999,0.0
77104,167.338,25.326,0.0
77137,167.37,25.377,0.0
77171,167.646,25.571,0.0
77204,168.009,25.907,0.0
77237,168.144,26.076,0.0
77271,168.055,26.048,0.0
77304,167.949,25.965,0.0
77337,168.104,26.078,0.0
77370,168.465,26.37,0.0
77404,168.921,26.764,0.0
77437,169.215,27.065,0.0
77469,169.495,27.333,0.0
77504,169.783,27.62,0.0
77537,169.981,27.831,0.0
77570,170.112,28.0,0.0
77604,170.218,28.125,0.0
77637,170.337,28.261,0.0
77670,170.543,28.429,0.0
77704,170.848,28.687,0.0
77737,170.772,28.797,0.0
77770,168.857,27.482,0.0
77803,166.285,25.189,0.0
77837,165.192,23.946,0.0
77870,165.506,23.895,0.0
77903,166.164,24.295,0.0
77937,166.463,24.5,0.0
77969,166.219,24.35,0.0
78003,166.219,24.323,0.0
78037,166.798,24.721,0.0
78070,167.291,25.15,0.0
78103,167.528,25.4,0.0
78136,167.459,25.384,0.0
78170,167.56,25.445,0.0
78203,167.788,25.646,0.0
78236,168.118,25.917,0.0
78270,168.519,26.269,0.0
78303,168.96,26.663,0.0
78336,169.226,26.931,0.0
78370,169.456,27.152,0.0
78403,169.584,27.327,0.0
78436,169.68,27.451,0.0
78469,169.827,27.62,0.0
78503,170.048,27.828,0.0
78536,170.26,28.029,0.0
78569,170.495,28.284,0.0
78603,170.752,28.523,0.0
78636,170.912,28.705,0.0
78669,171.087,28.888,0.0
78703,171.278,29.085,0.0
78736,171.562,29.362,0.0
78769,171.533,29.48,0.0
78803,169.396,28.002,0.0
78836,166.49,25.44,0.0
78869,165.353,24.088,0.0
78903,165.788,24.094,0.0
78936,166.666,24.622,0.0
78969,167.024,24.897,0.0
79002,166.892,24.796,0.0
79036,166.895,24.758,0.0
79069,167.355,25.092,0.0
79102,167.81,25.492,0.0
79136,168.006,25.716,0.0
79169,167.935,25.718,0.0
79202,167.978,25.739,0.0
79236,168.272,25.96,0.0
79269,168.659,26.271,0.0
79302,169.126,26.683,0.0
79336,169.461,27.012,0.0
79369,169.756,27.306,0.0
79402,170.018,27.541,0.0
79435,170.206,27.755,0.0
79469,170.424,27.98,0.0
79502,170.583,28.17,0.0
79535,170.712,28.329,0.0
79569,170.959,28.553,0.0
79602,171.199,28.794,0.0
79635,171.446,29.047,0.0
79669,171.638,29.245,0.0
79702,171.807,29.471,0.0
79735,172.025,29.698,0.0
79768,172.258,29.922,0.0
79802,172.552,30.232,0.0
79835,172.029,30.047,0.0
79868,169.315,27.951,0.0
79902,166.983,25.685,0.0
79935,166.593,24.922,0.0
79968,167.341,25.236,0.0
80002,168.155,25.805,0.0
80035,168.478,26.073,0.0
80068,168.404,26.063,0.0
80102,168.646,26.212,0.0
80135,169.072,26.603,0.0
80168,169.286,26.83,0.0
80200,169.232,26.843,0.0
80235,169.139,26.789,0.0
80268,169.315,26.921,0.0
80302,169.661,27.208,0.0
80335,170.001,27.527,0.0
80368,170.41,27.893,0.0
80401,170.731,28.224,0.0
80435,170.925,28.464,0.0
80468,171.143,28.698,0.0
80501,171.337,28.923,0.0
80535,171.496,29.085,0.0
80568,171.636,29.266,0.0
80601,171.66,29.359,0.0
80634,171.864,29.56,0.0
80668,172.142,29.818,0.0
80700,172.335,30.045,0.0
80734,172.586,30.293,0.0
80768,172.788,30.557,0.0
80801,171.448,29.75,0.0
80834,168.648,27.34,0.0
80868,167.117,25.688,0.0
80901,167.298,25.435,0.0
80934,168.205,25.951,0.0
80968,168.867,26.436,0.0
81001,169.134,26.695,0.0
81034,169.246,26.79,0.0
81067,169.587,27.077,0.0
81101,169.724,27.27,0.0
81134,169.654,27.245,0.0
81167,169.475,27.104,0.0
81200,169.571,27.148,0.0
81234,169.919,27.414,0.0
81267,170.306,27.751,0.0
81301,170.672,28.115,0.0
81334,170.97,28.414,0.0
81367,171.262,28.707,0.0
81401,171.497,28.948,0.0
81434,171.629,29.119,0.0
81467,171.764,29.283,0.0
81500,171.881,29.405,0.0
81534,171.972,29.527,0.0
81567,172.25,29.76,0.0
81600,172.291,29.919,0.0
81634,170.523,28.736,0.0
81667,167.925,26.415,0.0
81700,166.886,25.148,0.0
81734,167.094,25.037,0.0
81767,167.8,25.436,0.0
81800,168.24,25.742,0.0
81834,168.226,25.751,0.0
81867,168.361,25.819,0.0
81900,168.807,26.149,0.0
81933,169.169,26.522,0.0
81967,169.163,26.573,0.0
82000,169.104,26.547,0.0
82033,169.183,26.581,0.0
82067,169.422,26.793,0.0
82100,169.806,27.115,0.0
82132,170.154,27.453,0.0
82167,170.445,27.727,0.0
82200,170.707,28.008,0.0
82233,170.905,28.215,0.0
82266,171.014,28.374,0.0
82300,171.145,28.52,0.0
82333,171.315,28.695,0.0
82366,171.452,28.835,0.0
82400,171.625,29.02,0.0
82433,171.897,29.244,0.0
82466,172.117,29.481,0.0
82500,172.209,29.673,0.0
82533,170.612,28.625,0.0
82566,167.752,26.151,0.0
82600,166.533,24.759,0.0
82632,166.743,24.584,0.0
82666,167.47,25.004,0.0
82699,167.864,25.25,0.0
82733,167.732,25.18,0.0
82766,167.779,25.145,0.0
82799,168.273,25.486,0.0
82833,168.756,25.903,0.0
82866,168.973,26.13,0.0
82899,168.943,26.129,0.0
82933,168.98,26.174,0.0
82966,169.145,26.326,0.0
82999,169.464,26.592,0.0
83033,169.886,26.934,0.0
83066,170.22,27.237,0.0
83099,170.461,27.5,0.0
83132,170.68,27.717,0.0
83166,170.927,27.953,0.0
83199,171.041,28.091,0.0
83232,171.232,28.286,0.0
83266,171.416,28.495,0.0
83299,171.628,28.704,0.0
83332,171.905,28.944,0.0
83366,172.096,29.175,0.0
83399,172.269,29.378,0.0
83432,172.423,29.569,0.0
83466,172.682,29.819,0.0
83499,172.969,30.091,0.0
83532,173.126,30.327,0.0
83565,172.007,29.693,0.0
83599,169.092,27.255,0.0
83632,167.239,25.356,0.0
83665,167.181,24.93,0.0
83699,167.974,25.336,0.0
83732,168.632,25.804,0.0
83765,168.728,25.907,0.0
83799,168.6,25.811,0.0
83832,168.945,26.067,0.0
83865,169.38,26.459,0.0
83898,169.477,26.611,0.0
83932,169.376,26.598,0.0
83965,169.362,26.594,0.0
83998,169.504,26.725,0.0
84032,169.83,26.993,0.0
84065,170.26,27.362,0.0
84098,170.586,27.682,0.0
84132,170.866,27.959,0.0
84165,171.117,28.216,0.0
84198,171.273,28.421,0.0
84232,171.433,28.591,0.0
84265,171.554,28.766,0.0
84298,171.733,28.946,0.0
84331,171.855,29.122,0.0
84365,172.074,29.333,0.0
84398,172.323,29.592,0.0
84431,172.548,29.832,0.0
84465,172.836,30.124,0.0
84498,173.132,30.433,0.0
84531,172.585,30.249,0.0
84565,169.951,28.199,0.0
84598,167.852,26.116,0.0
84631,167.568,25.499,0.0
84665,168.244,25.817,0.0
84698,169.022,26.375,0.0
84731,169.326,26.648,0.0
84764,169.373,26.697,0.0
84798,169.666,26.954,0.0
84831,169.925,27.227,0.0
84863,169.883,27.255,0.0
84898,169.704,27.122,0.0
84931,169.672,27.097,0.0
84964,169.896,27.257,0.0
84998,170.262,27.572,0.0
85031,170.622,27.904,0.0
85064,170.982,28.251,0.0
85098,171.254,28.527,0.0
85131,171.481,28.787,0.0
85164,171.685,29.006,0.0
85197,171.778,29.155,0.0
85231,171.766,29.219,0.0
85264,171.827,29.327,0.0
85297,172.011,29.498,0.0
85331,172.268,29.769,0.0
85363,172.187,29.869,0.0
85397,170.39,28.6,0.0
85431,167.865,26.31,0.0
85464,166.944,25.169,0.0
85497,167.29,25.142,0.0
85531,168.042,25.601,0.0
85564,168.412,25.91,0.0
85597,168.352,25.872,0.0
85630,168.47,25.948,0.0
85664,168.902,26.295,0.0
85697,169.198,26.597,0.0
85730,169.192,26.639,0.0
85764,169.142,26.598,0.0
85797,169.243,26.675,0.0
85830,169.545,26.923,0.0
85863,169.899,27.236,0.0
85897,170.261,27.562,0.0
85930,170.517,27.828,0.0
85964,170.701,28.067,0.0
85997,170.935,28.278,0.0
86030,171.121,28.504,0.0
86063,171.247,28.666,0.0
86097,171.393,28.836,0.0
86130,171.585,29.036,0.0
86163,171.778,29.22,0.0
86197,171.948,29.428,0.0
86230,172.165,29.65,0.0
86263,172.438,29.942,0.0
86297,171.663,29.569,0.0
86330,168.9,27.35,0.0
86363,166.829,25.298,0.0
86396,166.485,24.637,0.0
86430,167.144,24.922,0.0
86463,167.781,25.347,0.0
86496,167.907,25.45,0.0
86530,167.752,25.322,0.0
86563,168.011,25.475,0.0
86596,168.544,25.913,0.0
86630,168.829,26.207,0.0
86663,168.888,26.324,0.0
86696,168.837,26.283,0.0
86730,168.96,26.396,0.0
86763,169.313,26.654,0.0
86796,169.648,26.961,0.0
86829,170.021,27.294,0.0
86863,170.257,27.538,0.0
86896,170.517,27.804,0.0
86929,170.732,28.044,0.0
86963,170.919,28.227,0.0
86996,171.068,28.41,0.0
87029,171.265,28.613,0.0
87063,171.527,28.857,0.0
87096,171.689,29.061,0.0
87129,171.881,29.268,0.0
87163,172.079,29.495,0.0
87196,172.362,29.749,0.0
87229,172.666,30.05,0.0
87262,172.972,30.359,0.0
87296,172.161,29.97,0.0
87329,169.373,27.723,0.0
87362,167.189,25.586,0.0
87396,166.908,24.931,0.0
87429,167.648,25.276,0.0
87462,168.378,25.795,0.0
87496,168.489,25.921,0.0
87529,168.356,25.837,0.0
87562,168.651,26.041,0.0
87596,169.07,26.414,0.0
87629,169.243,26.636,0.0
87662,169.227,26.67,0.0
87695,169.184,26.664,0.0
87729,169.257,26.747,0.0
87762,169.511,26.976,0.0
87795,169.916,27.327,0.0
87829,170.248,27.651,0.0
87862,170.484,27.903,0.0
87895,170.701,28.134,0.0
87929,170.897,28.356,0.0
87962,171.033,28.542,0.0
87995,171.165,28.71,0.0
88028,171.287,28.851,0.0
88062,171.447,29.018,0.0
88094,171.627,29.221,0.0
88128,171.79,29.417,0.0
88162,172.081,29.704,0.0
88195,172.184,29.908,0.0
88228,170.6,28.872,0.0
88262,167.948,26.565,0.0
88295,166.82,25.257,0.0
88328,167.084,25.194,0.0
88362,167.89,25.697,0.0
88395,168.41,26.137,0.0
88428,168.579,26.293,0.0
88461,168.78,26.448,0.0
88495,169.029,26.712,0.0
88528,169.0,26.779,0.0
88561,168.767,26.63,0.0
88594,168.677,26.54,0.0
88628,168.843,26.653,0.0
88661,169.162,26.924,0.0
88695,169.483,27.215,0.0
88728,169.821,27.538,0.0
88761,170.03,27.802,0.0
88795,170.236,28.02,0.0
88828,170.38,28.208,0.0
88861,170.534,28.38,0.0
88894,170.688,28.526,0.0
88928,170.914,28.728,0.0
88961,171.098,28.946,0.0
88994,170.827,28.886,0.0
89028,168.748,27.36,0.0
89061,166.497,25.304,0.0
89094,165.798,24.387,0.0
89128,166.311,24.551,0.0
89161,166.99,25.012,0.0
89194,167.237,25.215,0.0
89228,167.249,25.223,0.0
89261,167.55,25.444,0.0
89294,168.022,25.823,0.0
89327,168.199,26.056,0.0
89361,168.08,26.016,0.0
89394,168.027,25.978,0.0
89427,168.152,26.083,0.0
89461,168.403,26.302,0.0
89494,168.893,26.722,0.0
89527,169.259,27.049,0.0
89561,169.552,27.351,0.0
89594,169.827,27.617,0.0
89627,170.025,27.837,0.0
89661,170.11,27.98,0.0
89694,170.214,28.11,0.0
89727,170.358,28.252,0.0
89760,170.538,28.439,0.0
89794,170.767,28.666,0.0
89827,170.731,28.77,0.0
89860,168.882,27.483,0.0
89894,166.304,25.219,0.0
89927,165.187,23.982,0.0
89960,165.474,23.927,0.0
89994,166.063,24.294,0.0
90027,166.275,24.453,0.0
90060,166.113,24.334,0.0
90094,166.208,24.36,0.0
90127,166.745,24.785,0.0
90160,167.114,25.138,0.0
90193,167.246,25.319,0.0
90227,167.188,25.276,0.0
90260,167.232,25.326,0.0
90293,167.496,25.541,0.0
90327,167.871,25.847,0.0
90360,168.286,26.207,0.0
90393,168.607,26.527,0.0
90427,168.872,26.784,0.0
90460,169.081,26.993,0.0
90493,169.221,27.17,0.0
90527,169.383,27.335,0.0
90560,169.552,27.509,0.0
90593,169.729,27.695,0.0
90626,169.902,27.871,0.0
90660,170.123,28.092,0.0
90693,170.304,28.28,0.0
90726,170.478,28.473,0.0
90760,170.709,28.685,0.0
90793,170.933,28.908,0.0
90825,170.607,28.84,0.0
90860,168.125,27.018,0.0
90893,165.647,24.721,0.0
90926,164.837,23.721,0.0
90959,165.432,23.912,0.0
90993,166.098,24.343,0.0
91026,166.207,24.434,0.0
91059,166.032,24.311,0.0
91093,166.221,24.414,0.0
91126,166.771,24.826,0.0
91159,167.22,25.208,0.0
91193,167.303,25.331,0.0
91226,167.245,25.32,0.0
91259,167.357,25.418,0.0
91293,167.697,25.684,0.0
91325,168.097,26.024,0.0
91359,168.456,26.357,0.0
91392,168.792,26.681,0.0
91426,168.973,26.899,0.0
91459,169.177,27.111,0.0
91492,169.388,27.332,0.0
91526,169.531,27.494,0.0
91559,169.695,27.681,0.0
91592,169.88,27.873,0.0
91626,170.076,28.056,0.0
91659,170.321,28.283,0.0
91692,170.436,28.455,0.0
91726,170.589,28.642,0.0
91759,170.815,28.863,0.0
91792,171.078,29.151,0.0
91825,170.81,29.115,0.0
91859,168.503,27.464,0.0
91892,166.05,25.209,0.0
91925,165.212,24.176,0.0
91959,165.748,24.338,0.0
91992,166.581,24.892,0.0
92025,166.871,25.148,0.0
92059,166.808,25.11,0.0
92092,166.983,25.23,0.0
92125,167.421,25.602,0.0
92159,167.639,25.847,0.0
92192,167.553,25.863,0.0
92225,167.481,25.822,0.0
92257,167.584,25.912,0.0
92292,167.912,26.18,0.0
92325,168.294,26.499,0.0
92358,168.687,26.861,0.0
92392,168.93,27.131,0.0
92425,169.178,27.387,0.0
92458,169.395,27.608,0.0
92492,169.509,27.774,0.0
92525,169.598,27.9,0.0
92558,169.697,28.015,0.0
92591,169.831,28.18,0.0
92625,170.063,28.412,0.0
92658,170.384,28.691,0.0
92691,170.598,28.965,0.0
92725,169.533,28.36,0.0
92757,166.777,26.13,0.0
92791,165.294,24.587,0.0
92825,165.321,24.279,0.0
92858,166.094,24.698,0.0
92891,166.549,25.067,0.0
92925,166.777,25.253,0.0
92958,166.962,25.375,0.0
92991,167.342,25.705,0.0
93024,167.492,25.891,0.0
93058,167.4,25.895,0.0
93091,167.188,25.745,0.0
93124,167.28,25.797,0.0
93158,167.502,25.995,0.0
93191,167.959,26.352,0.0
93224,168.336,26.691,0.0
93257,168.623,26.976,0.0
93291,168.851,27.217,0.0
93324,168.952,27.358,0.0
93358,169.01,27.465,0.0
93391,169.085,27.56,0.0
93424,169.289,27.748,0.0
93457,169.451,27.93,0.0
93491,168.9,27.692,0.0
93524,166.616,25.908,0.0
93557,164.671,24.106,0.0
93591,164.23,23.442,0.0
93624,164.929,23.768,0.0
93657,165.395,24.076,0.0
93691,165.461,24.111,0.0
93724,165.441,24.05,0.0
93757,165.861,24.355,0.0
93791,166.418,24.796,0.0
93824,166.568,24.98,0.0
93857,166.428,24.898,0.0
93890,166.366,24.844,0.0
93924,166.526,24.962,0.0
93957,166.831,25.219,0.0
93990,167.226,25.512,0.0
94024,167.612,25.838,0.0
94057,167.903,26.102,0.0
94090,168.136,26.32,0.0
94124,168.262,26.461,0.0
94157,168.407,26.589,0.0
94190,168.552,26.679,0.0
94224,168.699,26.806,0.0
94257,168.891,26.984,0.0
94290,168.783,26.996,0.0
94323,166.893,25.602,0.0
94357,164.653,23.546,0.0
94390,163.642,22.443,0.0
94423,164.05,22.5,0.0
94457,164.477,22.764,0.0
94490,164.478,22.749,0.0
94523,164.377,22.613,0.0
94557,164.736,22.809,0.0
