time,R,G,B
0,225.469,35.563,30.019
33,222.82,33.194,29.034
67,222.456,30.936,28.035
100,223.21,28.391,27.01
133,221.569,26.701,26.439
167,219.061,25.933,26.34
200,216.888,25.667,26.461
233,215.285,25.257,26.478
267,208.931,25.968,27.151
300,197.686,26.947,27.797
333,193.732,26.578,27.766
367,191.527,25.475,27.261
400,190.039,24.285,26.402
433,191.005,23.71,26.024
467,196.106,23.354,25.93
500,198.947,23.299,25.9
533,199.08,22.953,25.561
567,199.56,23.178,25.618
600,202.24,23.493,25.942
633,202.743,22.64,25.334
666,202.009,21.923,24.783
700,197.39,22.492,25.007
733,189.746,23.781,25.597
766,186.596,24.43,25.996
800,185.8,24.449,25.979
833,183.347,24.643,25.927
866,179.405,25.079,25.931
900,178.26,25.041,25.844
933,177.346,24.919,25.545
966,175.627,24.898,25.167
1000,172.021,25.135,24.857
1033,171.237,24.851,24.665
1066,175.05,23.387,24.17
1100,180.311,21.097,23.085
1133,184.646,18.943,21.872
1166,186.325,17.73,21.194
1200,187.467,17.054,20.779
1233,188.584,16.703,20.577
1266,190.72,16.425,20.398
1299,192.694,16.192,20.206
1333,192.103,16.663,20.453
1366,191.764,17.357,20.866
1399,193.264,17.158,20.852
1433,193.182,16.101,20.072
1466,193.376,15.207,19.352
1499,196.988,14.564,19.074
1533,199.582,14.21,18.837
1566,201.006,14.23,18.924
1599,201.304,14.506,19.065
1633,201.703,15.009,19.509
1666,203.461,14.702,19.332
1699,203.67,14.479,18.994
1733,202.081,15.045,19.298
1766,200.915,15.163,19.372
1799,201.048,14.092,18.576
1833,201.078,13.161,17.755
1866,201.289,13.055,17.728
1899,201.056,13.017,17.652
1932,199.799,12.995,17.647
1966,198.135,12.756,17.429
1999,197.531,12.912,17.628
2032,198.051,13.326,18.084
2066,198.421,13.485,18.207
2099,199.19,12.991,17.793
2132,199.063,12.052,16.899
2166,200.998,12.391,17.357
2199,201.73,12.67,17.608
2232,199.127,12.734,17.465
2266,197.088,12.868,17.498
2299,197.099,12.825,17.46
2332,197.272,12.303,16.945
2366,198.84,13.024,17.759
2399,199.721,12.689,17.564
2432,198.872,11.91,16.776
2466,198.535,12.324,17.176
2499,198.85,12.466,17.37
2532,199.331,12.871,17.73
2565,198.894,13.287,17.971
2599,198.346,13.623,18.161
2632,197.366,13.548,17.98
2665,195.531,13.666,17.913
2699,194.343,13.342,17.528
2732,193.76,13.035,17.368
2765,193.895,13.532,17.999
2799,194.46,13.307,17.953
2832,193.814,12.863,17.544
2865,193.68,13.042,17.712
2899,194.795,13.623,18.313
2932,196.11,13.375,18.093
2965,195.979,12.819,17.525
2999,195.821,12.801,17.469
3032,195.531,12.933,17.586
3065,194.928,13.03,17.612
3099,193.96,13.111,17.651
3132,193.669,13.281,17.842
3198,194.983,12.994,17.513
3232,194.966,13.406,17.892
3265,194.587,13.593,18.036
3298,194.75,13.66,18.094
3332,194.436,13.479,17.855
3365,194.689,13.555,17.897
3398,195.011,13.806,18.093
3432,195.717,14.105,18.354
3465,195.804,13.877,18.09
3498,194.421,13.241,17.337
3532,192.247,13.339,17.411
3565,190.36,13.897,17.995
3598,188.78,14.433,18.505
3632,188.184,15.097,19.058
3665,188.895,15.642,19.567
3698,190.529,15.586,19.538
3732,191.118,15.579,19.5
3765,190.464,15.273,19.153
3798,189.197,15.012,18.882
3831,188.228,14.839,18.7
3865,188.829,15.421,19.243
3898,190.15,15.735,19.599
3931,191.522,15.942,19.837
3965,193.487,15.673,19.703
3998,193.743,15.136,19.281
4031,193.846,14.885,19.058
4065,195.211,15.25,19.361
4098,197.532,15.098,19.316
4131,198.855,14.538,18.906
4165,199.085,13.997,18.451
4198,199.91,13.966,18.469
4231,200.838,14.563,18.939
4265,201.483,15.097,19.294
4298,201.1,15.195,19.275
4331,200.359,14.6,18.685
4365,198.834,13.852,18.075
4398,197.861,13.572,17.971
4431,197.819,13.668,18.128
4464,198.336,13.709,18.242
4498,198.933,13.668,18.234
4531,199.54,13.905,18.447
4564,200.09,14.116,18.626
4598,200.268,14.211,18.672
4631,200.534,14.406,18.853
4664,201.742,14.61,19.149
4698,202.292,14.765,19.327
4731,201.808,14.835,19.389
4764,200.683,14.907,19.384
4798,200.227,15.029,19.423
4831,200.273,14.522,18.885
4864,200.903,13.579,17.99
4898,202.616,12.869,17.485
4931,202.014,12.248,16.948
4964,198.84,12.128,16.786
4998,197.846,12.308,16.87
5031,198.674,12.899,17.32
5064,198.238,13.011,17.323
5097,197.547,13.027,17.321
5131,198.261,13.237,17.579
5164,198.684,13.336,17.731
5197,197.006,12.35,16.902
5231,195.454,11.661,16.46
5264,195.809,11.715,16.685
5297,196.626,11.167,16.395
5331,196.736,10.133,15.491
5364,199.658,9.915,15.461
5397,201.445,10.508,15.97
5431,203.275,11.076,16.458
5464,203.805,10.82,16.284
5497,202.983,10.395,15.836
5531,203.097,10.72,16.017
5564,203.736,11.386,16.579
5664,204.507,12.93,17.69
5697,205.072,13.462,18.058
5731,204.96,13.354,17.902
5764,205.09,13.599,18.011
5797,205.834,14.269,18.515
5830,205.788,14.843,18.899
5864,204.855,15.051,18.956
5897,203.707,15.237,19.004
5930,203.015,15.084,18.814
5964,202.547,14.95,18.637
5997,202.643,15.149,18.779
6030,202.733,14.948,18.606
6064,201.602,13.941,17.794
6097,200.308,13.44,17.548
6130,199.689,13.56,17.777
6164,199.658,13.908,18.124
6197,199.277,13.975,18.159
6230,199.131,14.143,18.224
6264,199.153,14.5,18.488
6297,199.283,14.56,18.505
6330,198.503,14.134,18.059
6364,197.841,13.561,17.514
6397,197.542,13.326,17.32
6430,197.612,13.543,17.533
6463,198.258,14.164,18.169
6497,198.558,14.179,18.165
6530,198.607,14.004,17.977
6563,199.005,13.94,17.89
6597,199.461,14.404,18.302
6630,199.846,14.592,18.462
6663,199.877,14.291,18.133
6697,200.261,14.484,18.309
6730,200.636,14.705,18.473
6763,200.713,14.513,18.268
6797,200.819,14.312,18.068
6830,201.352,14.487,18.231
6863,201.714,14.216,17.968
6897,200.681,13.216,17.079
6930,199.524,12.774,16.889
6963,199.167,12.816,17.073
6997,199.419,13.017,17.346
7030,199.607,13.17,17.477
7063,200.138,13.612,17.873
7096,200.53,13.878,18.064
7130,200.986,13.906,18.032
7163,200.868,13.497,17.594
7196,200.06,13.025,17.092
7230,200.001,13.24,17.34
7263,200.286,13.31,17.451
7296,200.256,13.112,17.27
7330,200.591,13.284,17.467
7363,201.052,13.526,17.664
7396,201.352,13.584,17.699
7430,201.569,13.584,17.664
7463,202.103,13.862,17.907
7496,202.498,13.794,17.817
7530,202.487,13.736,17.707
7563,202.812,13.938,17.854
7596,202.928,13.736,17.643
7630,203.07,13.725,17.612
7663,202.841,13.442,17.278
7696,201.38,12.534,16.533
7729,200.286,12.125,16.397
7763,200.09,12.284,16.663
7796,200.402,12.67,17.075
7829,200.707,12.781,17.172
7863,201.0,12.949,17.297
7896,201.512,13.207,17.489
7929,202.033,13.388,17.615
7963,201.796,13.027,17.242
7996,201.228,12.727,16.928
8029,200.954,12.642,16.872
8063,200.816,12.556,16.82
8096,200.871,12.564,16.862
8129,201.098,12.608,16.912
8163,201.388,12.812,17.091
8196,201.997,13.115,17.377
8229,202.542,13.171,17.396
8263,202.938,13.182,17.349
8296,203.331,13.238,17.357
8329,203.473,13.203,17.282
8362,203.334,12.984,17.036
8396,203.315,13.138,17.172
8429,203.37,13.309,17.311
8462,203.109,12.943,16.929
8496,201.629,12.013,16.151
8529,200.537,11.881,16.191
8562,200.941,12.473,16.884
8596,201.585,12.774,17.252
8629,202.029,12.957,17.419
8662,203.175,13.427,17.885
8696,203.543,13.544,17.946
8729,203.557,13.576,17.878
8762,203.234,13.195,17.46
8796,203.091,13.063,17.33
8829,203.347,13.194,17.509
8862,202.853,13.001,17.302
8896,202.835,12.966,17.265
8929,203.144,12.855,17.145
8962,203.86,12.396,16.717
8995,203.752,12.177,16.476
9029,202.224,12.096,16.235
9062,200.914,12.151,16.174
9095,200.755,11.904,15.9
9129,201.039,11.283,15.353
9162,201.189,10.786,14.876
9195,202.627,10.82,14.937
9229,204.359,10.802,14.949
9262,204.948,9.848,14.058
9295,203.91,8.783,13.067
9329,200.772,7.812,12.431
9362,197.449,6.889,11.683
9395,198.597,6.134,11.136
9429,199.577,5.647,10.661
9462,200.437,5.472,10.439
9495,201.301,5.238,10.132
9529,202.16,4.994,9.73
9562,204.262,6.136,10.596
9595,207.743,8.705,12.712
9629,207.077,9.554,13.397
9662,205.785,9.235,13.195
9695,207.157,8.584,12.8
9728,209.096,8.502,12.833
9762,207.695,8.007,12.359
9795,206.902,7.736,12.1
9828,206.115,7.492,11.879
9862,207.736,7.07,11.703
9895,209.047,6.513,11.299
9928,210.15,6.676,11.435
9962,210.272,7.361,11.937
9995,209.916,7.491,12.017
10028,209.85,7.493,12.013
10062,210.066,7.47,12.001
10095,210.385,7.138,11.719
10128,210.996,6.846,11.496
10162,211.31,6.235,10.998
10195,209.567,5.253,10.138
10228,208.806,5.204,10.239
10262,208.947,5.303,10.424
10295,210.138,6.0,11.186
10328,211.295,6.405,11.623
10361,211.59,6.355,11.523
10395,211.972,6.585,11.678
10428,211.721,6.589,11.585
10461,211.222,6.412,11.323
10495,210.493,5.922,10.806
10528,210.261,5.731,10.668
10561,210.353,5.789,10.763
10595,210.781,6.122,11.118
10628,211.164,6.364,11.38
10661,211.548,6.674,11.665
10695,211.689,6.815,11.716
10728,211.775,6.748,11.629
10761,212.147,6.862,11.747
10795,212.462,7.196,11.996
10828,212.394,7.23,11.97
10861,212.406,7.176,11.897
10895,212.348,7.193,11.866
10928,212.545,7.185,11.885
10961,212.81,7.149,11.873
10994,212.541,6.716,11.432
11028,210.799,5.906,10.668
11061,209.775,5.618,10.554
11094,209.95,5.421,10.636
11128,209.963,5.412,10.616
11161,210.418,5.474,10.759
11194,211.174,5.611,11.005
11228,211.568,5.623,11.046
11261,211.476,5.355,10.742
11294,211.472,5.2,10.617
11328,211.59,5.0,10.5
11361,211.46,4.924,10.44
11394,211.676,5.095,10.647
11428,212.24,5.305,10.928
11461,212.763,5.392,11.063
11494,213.046,5.44,11.072
11528,213.781,5.614,11.316
11561,214.14,5.704,11.392
11594,214.385,5.665,11.342
11626,214.455,5.456,11.135
11661,214.864,5.509,11.213
11694,215.161,5.579,11.269
11727,215.055,5.329,10.96
11761,215.369,5.482,11.1
11794,215.512,5.505,11.104
11827,215.335,5.144,10.723
11861,214.274,4.429,9.947
11894,212.69,4.106,9.687
11927,211.671,4.003,9.672
11961,211.305,4.213,9.856
11994,211.348,4.448,10.092
12027,211.762,4.755,10.443
12061,212.032,4.89,10.591
12094,212.103,4.786,10.445
12126,212.035,4.753,10.372
12161,211.403,4.5,10.051
12194,210.68,4.292,9.787
12227,210.295,4.268,9.774
12260,210.588,4.606,10.193
12294,210.812,4.682,10.316
12327,210.99,4.544,10.227
12359,211.577,4.797,10.517
12394,212.391,4.941,10.745
12427,212.084,4.783,10.448
12460,212.116,4.786,10.437
12494,211.894,4.554,10.175
12527,211.96,4.702,10.284
12560,212.426,4.97,10.596
12594,212.352,4.842,10.43
12626,212.849,5.191,10.769
12660,213.621,5.457,11.111
12694,212.394,4.594,10.124
12727,210.779,4.091,9.597
12760,210.301,4.308,9.858
12794,210.528,4.695,10.36
12827,210.607,4.799,10.485
12859,210.832,5.09,10.724
12893,211.383,5.52,11.163
12927,211.56,5.302,10.942
12960,211.764,5.2,10.841
12993,212.199,5.151,10.875
13027,211.905,4.914,10.581
13060,211.845,4.92,10.582
13092,212.329,5.197,10.929
13126,212.604,5.302,11.023
13160,212.81,5.335,11.034
13193,213.195,5.629,11.304
13227,213.641,5.749,11.426
13260,213.658,5.672,11.287
13293,213.688,5.698,11.265
13327,213.998,5.885,11.45
13359,213.972,5.752,11.294
13393,213.858,5.643,11.139
13427,214.096,5.873,11.363
13460,214.401,6.0,11.515
13493,214.186,5.643,11.132
13527,212.631,4.774,10.248
13560,211.421,4.529,10.164
13592,210.917,4.554,10.269
13626,211.098,4.778,10.58
13660,211.475,5.034,10.866
13693,211.752,5.228,11.056
13726,211.527,5.075,10.844
13760,211.14,4.97,10.638
13793,211.041,4.932,10.636
13825,210.99,4.836,10.596
13859,210.648,4.756,10.482
13893,210.455,4.869,10.58
13926,210.494,5.017,10.762
13960,210.947,5.304,11.083
13993,211.209,5.387,11.159
14026,211.405,5.432,11.17
14060,211.678,5.57,11.281
14092,211.755,5.547,11.221
14126,211.444,5.19,10.807
14160,210.993,4.992,10.534
14193,211.154,5.218,10.757
14226,210.932,5.12,10.622
14259,210.221,4.9,10.278
14293,210.082,5.044,10.416
14325,210.119,5.355,10.689
14359,210.304,5.537,10.871
14393,208.946,4.809,10.007
14426,207.492,4.512,9.743
14459,206.663,4.511,9.829
14493,206.206,4.571,9.925
14526,206.61,5.087,10.486
14559,207.257,5.606,11.03
14592,207.71,5.914,11.306
14626,208.144,6.126,11.505
14659,208.58,6.399,11.747
14693,207.774,5.792,11.069
14726,207.631,5.929,11.212
14759,207.995,6.162,11.523
14793,208.422,6.321,11.74
14825,208.883,6.363,11.844
14859,208.825,6.253,11.675
14892,209.179,6.398,11.828
14926,209.16,6.221,11.633
14959,209.362,6.421,11.807
14992,209.615,6.56,11.95
15026,209.531,6.31,11.694
15059,209.723,6.461,11.844
15092,209.973,6.496,11.887
15126,209.973,6.445,11.808
15159,210.05,6.443,11.803
15192,210.215,6.508,11.848
15226,210.357,6.514,11.849
15259,210.547,6.53,11.858
15292,209.619,5.853,11.128
15325,208.028,5.265,10.598
15359,207.168,5.147,10.613
15392,207.072,5.316,10.878
15426,207.223,5.539,11.194
15459,207.501,5.741,11.418
15492,207.782,5.859,11.538
15525,207.962,5.919,11.582
15559,207.862,5.772,11.411
15592,207.458,5.478,11.098
15625,206.992,5.26,10.866
15659,206.846,5.353,10.993
15692,206.883,5.42,11.082
15725,207.165,5.504,11.209
15759,207.6,5.618,11.349
15792,208.17,5.808,11.554
15825,208.457,5.889,11.589
15859,208.691,6.066,11.725
15892,208.726,6.053,11.67
15925,208.576,5.947,11.495
15959,208.646,5.95,11.496
15992,208.88,6.002,11.575
16025,209.002,6.009,11.577
16059,209.066,6.051,11.585
16092,209.109,6.136,11.637
16125,209.196,6.293,11.762
16158,209.256,6.419,11.847
16192,208.659,6.009,11.358
16225,206.886,5.302,10.656
16258,205.598,5.13,10.589
16292,205.291,5.253,10.789
16325,205.614,5.536,11.135
16358,206.111,5.765,11.378
16392,206.543,5.998,11.578
16425,206.705,6.068,11.579
16458,206.989,6.066,11.564
16492,207.001,5.965,11.454
16525,206.57,5.683,11.127
16558,206.241,5.568,11.005
16592,206.147,5.629,11.068
16625,206.287,5.717,11.174
16658,206.405,5.807,11.256
16692,206.545,5.912,11.322
16725,206.592,5.887,11.27
16758,206.716,5.884,11.258
16791,206.88,5.918,11.274
16825,206.922,5.895,11.22
16858,206.958,5.922,11.227
16891,206.931,5.896,11.187
16925,207.022,5.882,11.185
16958,207.212,5.956,11.261
16991,207.382,5.97,11.276
17025,207.639,6.022,11.34
17058,208.0,6.116,11.434
17091,208.063,6.014,11.298
17125,207.105,5.376,10.596
17158,205.674,4.853,10.104
17191,204.817,4.712,10.036
17225,204.731,4.832,10.215
17258,205.139,5.011,10.453
17291,205.498,5.162,10.593
17325,205.686,5.262,10.641
17358,205.829,5.371,10.696
17391,205.81,5.314,10.624
17425,205.512,5.066,10.362
17458,205.214,4.784,10.123
17491,205.382,4.755,10.141
17524,206.863,5.622,11.076
17558,208.002,5.904,11.283
17591,208.954,6.279,11.505
17624,209.775,6.787,11.657
17658,210.654,8.006,12.172
17691,211.895,9.884,12.976
17724,213.351,12.814,14.191
17758,215.196,17.77,16.047
17791,217.645,24.305,18.39
17824,221.075,32.396,21.4
17858,224.267,40.238,24.401
17891,227.813,49.871,28.208
17924,231.176,58.234,31.721
17958,233.56,64.459,34.307
17991,234.992,69.052,36.12
18024,236.285,73.324,37.722
18058,237.185,76.806,39.093
18091,237.762,79.492,40.3
18124,238.174,81.551,41.257
18157,238.986,85.126,42.738
18191,239.719,88.203,43.904
18224,240.762,92.66,45.657
18257,241.84,97.724,47.698
18291,243.097,104.215,50.43
18324,244.129,107.653,52.031
18357,243.977,104.259,50.607
18391,242.599,99.002,48.365
18424,242.24,98.478,48.173
18457,242.236,98.62,48.265
18491,242.193,97.967,48.016
18524,241.934,96.943,47.606
18557,241.752,96.729,47.477
18591,241.824,96.705,47.475
18624,241.625,95.399,46.948
18657,241.225,94.023,46.388
18691,241.136,93.72,46.305
18724,241.047,92.878,45.974
18757,240.756,91.634,45.49
18790,240.695,91.093,45.302
18824,240.479,89.824,44.76
18857,240.027,87.751,43.85
18890,239.551,86.256,43.263
18924,239.295,85.507,43.016
18957,239.009,84.209,42.516
18990,238.639,82.578,41.921
19024,238.001,80.597,41.287
19057,237.336,78.302,40.491
19090,236.549,76.136,39.659
19124,235.955,74.535,38.966
19157,235.395,72.911,38.266
19190,235.13,71.886,37.824
19224,234.668,69.79,36.912
19257,233.244,65.426,35.064
19290,231.9,61.977,33.525
19324,230.867,58.401,32.02
19357,230.823,57.39,31.617
19390,230.946,57.248,31.582
19423,230.561,55.801,30.906
19457,229.92,54.585,30.414
19490,229.887,55.036,30.594
19523,230.013,55.547,30.782
19557,230.227,56.469,31.181
19590,230.525,57.401,31.564
19623,230.856,58.56,32.044
19657,231.322,59.434,32.414
19690,231.173,58.588,32.01
19723,230.72,57.471,31.502
19757,230.689,57.481,31.519
19790,230.571,56.986,31.258
19823,230.67,57.427,31.498
19857,230.82,57.688,31.612
19890,230.839,57.88,31.696
19923,230.866,57.469,31.446
19957,231.02,58.606,31.991
19990,231.197,59.583,32.381
20023,231.113,60.34,32.598
20056,231.157,60.776,32.691
20090,230.818,60.143,32.184
20123,230.828,60.394,32.351
20156,230.838,60.154,32.174
20190,230.659,59.896,32.019
20223,230.684,59.686,31.898
20256,230.144,57.973,30.952
20290,229.748,57.397,30.751
20323,229.927,57.871,31.155
20356,229.946,57.526,30.984
20390,229.923,57.647,31.094
20423,229.948,57.542,31.053
20456,229.925,57.764,31.206
20490,230.189,58.253,31.516
20523,230.315,58.752,31.804
20556,230.519,58.907,31.845
20590,230.132,57.944,31.12
20623,230.237,58.374,31.478
20656,230.393,58.653,31.658
20689,230.339,58.262,31.365
20723,230.233,58.037,31.213
20756,230.292,58.237,31.418
20789,230.439,58.484,31.596
20823,230.26,57.592,30.931
20856,230.042,57.201,30.766
20889,230.155,57.411,31.012
20923,229.697,56.109,30.174
20956,229.068,55.402,29.883
20989,229.027,55.656,30.149
21023,229.105,55.67,30.204
21056,228.839,54.96,29.778
21089,228.859,55.059,29.951
21123,229.169,55.919,30.585
21156,229.459,56.241,30.769
21189,229.103,55.058,29.899
21223,228.81,54.8,29.753
21256,228.867,54.86,29.867
21289,228.935,55.257,30.208
21323,229.126,55.516,30.372
21356,228.82,54.597,29.681
21389,228.736,54.24,29.542
21422,228.764,54.395,29.771
21456,228.866,54.124,29.659
21489,227.855,51.442,28.448
21522,226.636,48.792,27.667
21556,225.997,48.03,27.455
21589,226.454,50.181,28.404
21622,227.423,52.754,29.4
21656,227.849,53.933,29.773
21689,227.71,54.115,29.751
21722,227.998,56.319,30.567
21756,228.512,57.653,30.961
21789,228.014,56.741,30.517
21822,228.87,60.96,32.392
21856,229.453,61.874,32.535
21889,228.134,58.438,30.943
21922,226.9,56.016,30.022
21956,226.627,55.602,29.972
21989,226.802,55.609,30.014
22022,226.632,54.609,29.658
22055,226.448,53.838,29.363
22089,226.342,53.367,29.212
22122,226.265,53.438,29.268
22155,226.145,53.073,29.111
22189,225.986,52.593,28.896
22222,225.745,52.477,28.827
22255,226.597,55.717,30.229
22289,227.095,56.791,30.469
22322,226.163,54.401,29.357
22355,225.888,54.489,29.438
22389,226.423,55.902,30.059
22422,226.28,55.153,29.728
22455,226.011,54.793,29.594
22489,225.97,54.367,29.421
22522,225.633,53.405,28.99
22555,225.385,53.098,28.892
22589,225.899,54.367,29.598
22622,226.089,54.557,29.701
22655,225.949,54.632,29.68
22688,226.332,55.368,30.076
22722,226.709,56.524,30.661
22755,227.083,57.327,31.013
22788,226.884,56.96,30.667
22822,226.526,56.93,30.525
22855,226.316,56.4,30.183
22888,225.816,55.26,29.61
22922,225.638,54.811,29.518
22955,226.07,55.905,30.257
22988,226.656,57.19,30.95
23022,226.551,56.383,30.379
23055,226.426,56.024,30.169
23088,226.043,55.099,29.621
23122,226.027,55.344,29.861
23155,226.072,54.975,29.693
23188,226.14,55.696,30.161
23222,226.757,57.363,31.067
23255,227.141,58.144,31.333
23288,227.134,58.258,31.329
23321,227.604,59.573,31.976
23355,228.073,61.052,32.664
23388,228.736,63.065,33.538
23421,229.299,64.038,33.904
23455,229.34,64.057,33.865
23488,229.483,64.723,34.144
23521,229.608,64.914,34.205
23555,229.658,64.826,34.162
23588,229.98,65.943,34.702
23621,230.748,68.233,35.782
23655,231.764,71.583,37.223
23688,232.975,74.097,38.326
23721,233.478,75.475,38.912
23755,233.728,76.161,39.205
23788,233.689,76.536,39.36
23821,233.85,76.988,39.585
23855,233.692,75.964,39.181
23888,233.653,76.329,39.36
23921,234.077,77.313,39.787
23954,234.298,77.663,39.921
23988,234.486,78.753,40.417
24021,235.469,81.972,41.848
24054,236.742,85.524,43.418
24088,237.486,86.458,43.886
24121,237.428,86.411,43.9
24154,238.109,88.393,44.728
24188,239.114,91.022,45.928
24221,239.841,91.677,46.282
24254,239.988,89.806,45.548
24288,240.114,88.74,45.147
24321,240.434,88.483,45.075
24354,241.089,90.288,45.891
24388,242.073,92.341,46.806
24421,242.818,95.191,47.954
24454,243.893,100.052,49.986
24488,244.399,101.683,50.637
24521,245.052,104.722,51.887
24554,245.594,107.078,52.864
24587,245.777,107.529,53.048
24621,246.169,109.49,53.932
24654,246.399,109.641,54.02
24687,246.475,110.034,54.251
24721,246.198,107.723,53.34
24754,245.4,102.433,51.293
24787,244.74,99.352,50.096
24821,244.204,96.861,49.103
24854,243.736,95.064,48.402
24887,243.569,94.459,48.152
24921,243.156,92.961,47.533
24954,242.758,91.691,47.04
24987,242.397,89.996,46.359
25021,241.936,88.062,45.603
25054,241.668,86.341,44.952
25087,241.439,85.317,44.573
25121,241.319,84.282,44.173
25154,241.125,82.941,43.606
25187,240.997,81.821,43.151
25220,240.806,80.481,42.584
25254,240.219,78.993,41.91
25287,239.301,77.347,41.129
25320,238.665,74.43,39.841
25354,238.18,70.949,38.347
25387,237.552,67.157,36.791
25420,236.987,63.142,35.059
25454,236.386,59.598,33.657
25487,235.884,54.428,31.583
25520,235.568,48.738,29.584
25554,235.782,47.496,29.286
25587,236.045,48.663,29.705
25620,235.982,46.943,29.012
25654,235.88,46.172,28.798
25687,235.962,47.204,29.223
25720,235.607,47.083,28.983
25754,234.898,45.611,28.275
25787,234.557,45.535,28.208
25820,234.634,46.397,28.603
25854,234.658,47.003,28.866
25887,234.618,46.903,28.808
25920,234.553,46.951,28.819
25953,234.265,45.943,28.307
25987,233.549,43.566,27.202
26020,233.006,42.25,26.749
26053,232.773,42.121,26.757
26087,232.76,42.166,26.83
26120,232.666,41.678,26.649
26153,232.719,42.231,26.946
26187,233.213,43.765,27.712
26220,233.578,45.31,28.402
26253,233.872,46.919,29.035
26287,234.127,48.334,29.604
26320,234.387,49.736,30.142
26353,234.369,49.524,29.963
26387,234.24,49.585,29.955
26420,234.359,50.003,30.164
26453,234.243,49.634,29.972
26487,234.255,49.546,29.981
26520,234.27,49.73,30.104
26553,234.458,50.308,30.352
26586,234.577,51.013,30.677
26620,234.397,50.24,30.226
26653,234.378,50.856,30.54
26686,234.692,51.835,31.013
26720,234.328,50.684,30.224
26753,233.527,49.164,29.399
26786,233.098,47.992,28.979
26820,233.079,47.921,29.1
26853,233.076,47.39,28.917
26886,233.152,47.34,28.993
26920,233.282,46.995,28.868
26953,233.046,46.355,28.524
26986,233.205,46.892,28.866
27020,233.167,46.989,28.891
27053,233.416,48.348,29.675
27086,233.547,48.659,29.739
27120,233.324,47.952,29.232
27153,233.282,47.649,29.117
27186,233.536,48.581,29.758
27219,233.926,49.732,30.369
27253,233.934,49.448,30.107
27286,233.964,50.269,30.496
27319,234.288,50.913,30.807
27353,234.225,51.218,30.903
27386,234.384,51.64,31.077
27419,234.352,51.425,30.892
27453,233.94,49.019,29.535
27486,233.367,48.216,29.249
27519,233.994,51.48,30.989
27553,234.609,53.409,31.811
27586,234.686,53.742,31.853
27619,234.629,53.768,31.854
27653,234.888,55.33,32.499
27686,234.691,54.701,32.029
27719,234.014,53.224,31.262
27753,233.696,52.613,30.988
27786,233.639,52.503,30.999
27819,233.806,53.014,31.33
27852,233.942,53.071,31.392
27886,233.962,53.027,31.374
27919,234.04,53.202,31.484
27952,234.058,53.235,31.451
27986,233.932,53.021,31.272
28019,233.696,52.312,30.856
28052,233.824,52.917,31.268
28086,234.048,53.476,31.569
28119,233.934,52.736,31.043
28152,233.923,52.704,31.063
28186,234.173,53.651,31.722
28219,234.362,53.822,31.771
28251,234.193,53.094,31.238
28286,234.149,52.763,31.035
28319,234.077,52.492,30.943
28352,234.122,52.49,31.0
28386,234.106,51.911,30.658
28419,233.966,51.33,30.388
28452,234.098,51.66,30.765
28484,234.037,50.988,30.309
28519,233.87,50.061,29.857
28552,233.432,48.133,29.1
28585,233.359,47.798,29.174
28619,233.656,48.803,29.876
28652,233.721,49.132,29.959
28685,233.182,48.231,29.225
28719,232.854,47.742,28.943
28751,232.858,47.7,29.026
28785,232.984,48.147,29.401
28819,233.152,48.189,29.444
28852,233.27,48.752,29.787
28885,233.491,49.435,30.126
28919,233.647,50.116,30.394
28952,233.693,50.666,30.549
28984,233.552,50.465,30.295
29019,233.612,51.1,30.621
29052,233.718,51.609,30.878
29085,233.813,52.021,31.061
29118,233.639,51.38,30.534
29152,233.436,52.414,31.06
29185,234.05,54.926,32.223
29217,233.788,54.083,31.695
29251,233.549,53.962,31.604
29285,233.805,53.355,31.419
29318,233.485,51.954,30.737
29352,233.736,52.689,31.183
29385,234.106,53.225,31.497
29418,233.953,52.644,31.121
29452,233.955,52.475,31.038
29484,234.047,52.467,31.081
29518,234.327,53.153,31.505
29552,234.56,53.295,31.568
29585,234.5,53.183,31.391
29618,234.453,53.921,31.633
29652,234.239,54.243,31.704
29685,234.134,54.377,31.662
29717,233.917,54.016,31.335
29751,234.225,54.642,31.824
29785,234.12,54.183,31.429
29818,234.026,53.734,31.245
29851,234.223,53.995,31.551
29885,234.478,54.573,31.955
29918,234.404,54.139,31.571
29950,234.219,53.671,31.234
29984,234.309,54.097,31.607
30018,234.362,54.043,31.598
30051,234.097,52.427,30.627
30085,234.09,52.731,31.021
30118,234.63,54.0,31.939
30151,234.697,53.787,31.707
30185,234.299,52.743,30.923
30217,234.382,52.862,31.08
30251,234.299,52.428,30.835
30285,234.356,52.815,31.186
30318,234.567,53.487,31.633
30351,234.731,53.231,31.408
30385,234.474,52.394,30.829
30418,234.605,53.132,31.397
30450,234.887,53.664,31.684
30484,234.663,53.024,31.178
30518,234.738,53.388,31.449
30551,234.809,53.848,31.642
30584,234.321,52.85,30.771
30618,233.934,52.19,30.369
30651,233.84,52.412,30.646
30684,233.873,52.503,30.84
30717,234.06,52.845,31.153
30751,234.176,53.422,31.56
30784,234.436,53.707,31.679
30818,234.306,53.608,31.56
30851,234.517,54.494,32.069
30884,234.398,54.567,31.969
30918,234.491,54.306,31.768
30950,234.154,53.347,31.14
30984,234.368,54.362,31.92
31018,234.556,54.675,32.059
31051,234.494,54.279,31.735
31084,234.535,54.483,31.898
31117,234.749,55.377,32.463
31151,234.989,56.562,33.038
31184,235.411,58.67,33.915
31217,235.778,59.845,34.252
31251,235.486,58.195,33.491
31284,235.222,57.546,33.244
31317,235.134,56.689,32.846
31351,235.077,56.625,32.868
31384,235.117,56.369,32.759
31417,235.081,56.425,32.826
31450,235.009,56.551,32.757
31484,234.506,55.34,32.022
31517,234.162,55.455,32.101
31551,234.695,57.69,33.312
31584,235.015,58.504,33.666
31617,234.802,57.154,32.92
31651,234.555,56.688,32.686
31684,234.901,57.496,33.198
31717,234.865,57.235,33.008
31750,234.801,57.348,33.038
31784,234.903,57.556,33.116
31817,234.555,56.69,32.58
31850,234.622,56.627,32.638
31884,234.491,55.755,32.203
31917,234.629,56.403,32.699
31950,234.946,56.755,32.91
31984,234.697,56.138,32.453
32017,234.902,56.948,33.007
32050,234.991,57.149,33.061
32084,234.939,56.817,32.77
32117,234.984,57.0,32.905
32150,235.105,57.419,33.148
32184,235.146,57.334,33.021
32217,235.115,57.279,32.991
32250,235.153,57.469,33.109
32284,235.262,58.13,33.47
32317,234.824,57.043,32.5
32350,234.502,57.363,32.673
32383,234.711,58.751,33.587
32417,234.723,58.634,33.401
32450,234.921,59.594,33.997
32483,234.999,59.425,33.789
32517,234.808,58.911,33.422
32550,235.038,59.534,33.863
32583,234.84,58.949,33.363
32617,234.736,59.055,33.43
32650,234.693,58.514,33.055
32683,234.6,58.431,33.095
32717,234.721,58.793,33.42
32750,234.843,59.052,33.598
32783,235.041,59.753,34.044
32817,235.167,59.665,33.871
32850,234.872,58.725,33.187
32883,234.983,59.164,33.571
32917,235.048,59.191,33.571
32950,235.08,59.069,33.479
32983,234.847,58.393,33.02
33016,234.935,58.495,33.19
33050,235.012,58.722,33.41
33083,235.086,58.777,33.471
33116,234.947,58.149,32.966
33150,234.536,57.377,32.415
33183,234.129,56.81,32.125
33216,234.019,56.723,32.202
33250,234.075,56.89,32.426
33283,234.074,56.547,32.245
33316,234.079,56.961,32.612
33350,234.353,57.718,33.105
33383,234.413,57.957,33.147
33416,234.551,58.54,33.42
33450,234.397,58.071,33.003
33483,234.28,57.871,32.873
33516,234.268,57.595,32.69
33550,234.152,56.9,32.279
33583,234.117,56.675,32.261
33616,234.185,56.816,32.459
33650,234.334,57.376,32.881
33683,234.282,57.136,32.649
33716,234.218,57.011,32.553
33749,234.298,57.357,32.782
33783,234.391,57.809,33.046
33816,234.049,56.32,31.967
33849,234.101,56.963,32.558
33883,234.234,57.22,32.759
33916,234.532,58.557,33.591
33949,234.632,58.66,33.476
33983,234.307,58.001,32.915
34016,233.925,57.59,32.556
34049,233.741,57.583,32.531
34083,233.674,57.535,32.575
34116,233.824,58.045,32.961
34149,233.942,58.109,32.977
34183,233.93,58.066,32.929
34216,233.993,58.345,33.111
34249,233.957,57.97,32.802
34283,233.817,57.635,32.569
34316,233.806,57.918,32.79
34349,233.819,57.776,32.663
34382,233.715,57.239,32.346
34416,233.674,57.062,32.333
34449,233.777,57.232,32.527
34482,233.804,57.13,32.477
34516,233.883,57.27,32.628
34549,233.861,57.225,32.586
34582,233.968,57.599,32.849
34616,234.051,57.574,32.764
34649,233.983,57.421,32.644
34682,234.017,57.613,32.796
34716,234.137,57.73,32.861
34749,233.996,57.15,32.414
34782,233.919,56.971,32.361
34816,234.038,57.523,32.814
34849,234.268,58.151,33.199
34882,234.163,57.726,32.754
34916,233.802,56.97,32.129
34949,233.22,56.246,31.653
34982,233.103,56.347,31.798
35015,233.072,56.321,31.839
35049,232.982,55.769,31.55
35082,233.052,55.906,31.771
35115,233.227,56.18,32.01
35149,233.144,55.848,31.756
35182,233.052,55.833,31.758
35215,233.052,55.732,31.666
35249,232.941,55.845,31.771
35282,232.995,55.786,31.753
35315,232.973,55.77,31.775
35349,233.014,55.503,31.608
35382,233.0,55.557,31.707
35415,233.168,55.786,31.892
35449,233.22,56.344,32.242
35482,233.515,57.385,32.791
35515,233.634,57.961,32.983
35549,233.915,59.396,33.643
35582,234.266,60.863,34.215
35615,234.303,60.955,34.132
35648,234.262,60.924,34.091
35682,234.352,61.301,34.27
35715,234.544,62.214,34.697
35748,234.531,61.964,34.489
35782,234.465,61.641,34.287
35815,234.499,61.838,34.4
35848,234.518,62.04,34.483
35882,234.245,60.895,33.716
35915,233.5,59.28,32.889
35948,233.176,58.907,32.798
35982,233.144,59.075,32.945
36015,233.261,58.948,32.949
36048,233.51,60.157,33.612
36082,233.702,59.99,33.492
36115,233.388,59.073,32.939
36148,233.367,59.267,33.035
36182,233.424,59.534,33.181
36215,233.285,58.966,32.839
36248,233.126,58.423,32.572
36281,233.253,59.118,33.035
36315,233.533,59.795,33.47
36348,233.628,59.615,33.304
36381,233.629,59.771,33.38
36415,233.719,59.597,33.23
36448,233.716,59.395,33.092
36481,233.374,58.041,32.232
36515,233.487,58.419,32.672
36548,233.667,59.05,33.144
36581,233.647,58.667,32.822
36615,233.657,58.906,32.992
36648,233.852,59.589,33.415
36681,233.772,59.128,33.036
36715,233.926,59.44,33.256
36748,233.842,59.204,33.003
36781,233.398,58.266,32.274
36815,233.008,57.669,31.971
36848,233.0,58.081,32.36
36881,233.142,58.271,32.551
36914,233.157,58.196,32.545
36948,233.2,57.984,32.457
36981,233.264,58.0,32.507
37014,233.362,58.084,32.589
37048,233.214,57.627,32.249
37081,233.068,57.513,32.194
37114,233.148,57.63,32.314
37148,232.922,56.974,31.895
37181,233.081,57.555,32.418
37214,233.211,57.532,32.373
37248,233.107,57.139,32.099
37281,233.143,57.067,32.116
37314,233.199,57.187,32.247
37348,233.3,57.451,32.424
37381,233.178,56.774,31.922
37414,233.22,56.969,32.145
37448,233.368,57.564,32.552
37481,233.518,58.04,32.789
37514,233.552,58.003,32.673
37547,233.45,57.769,32.453
37581,233.5,57.774,32.436
37614,233.426,57.486,32.267
37647,233.344,57.002,31.924
37681,232.899,55.898,31.275
37714,232.239,54.835,30.878
37747,232.064,54.361,30.804
37781,231.974,54.077,30.77
37814,232.163,54.364,31.051
37847,232.378,54.78,31.32
37881,232.455,54.831,31.326
37914,232.491,54.986,31.394
37947,232.518,55.188,31.432
37981,232.255,54.499,30.921
38014,232.213,54.455,30.915
38047,232.246,54.419,30.908
38081,232.188,54.23,30.821
38114,232.158,53.86,30.639
38147,232.381,54.519,31.209
38181,232.487,54.38,31.076
38214,232.342,53.874,30.717
38247,232.425,53.946,30.85
38280,232.48,53.913,30.869
38314,232.658,54.547,31.316
38347,232.668,54.266,31.039
38380,232.593,54.254,30.994
38414,232.647,54.5,31.153
38447,232.679,54.474,31.1
38480,232.626,54.404,31.043
38514,232.688,54.561,31.151
38547,232.702,54.436,31.049
38580,232.799,54.729,31.273
38614,232.648,54.26,30.805
38647,231.933,52.849,29.982
38680,231.315,51.932,29.668
38714,231.29,52.269,29.931
38747,231.593,53.144,30.461
38780,231.872,54.194,31.006
38814,232.021,54.188,30.961
38847,231.956,53.902,30.785
38880,231.862,53.56,30.571
38913,231.827,53.592,30.546
38947,231.669,53.323,30.368
38980,231.759,54.03,30.776
39013,231.922,54.266,30.9
39047,231.954,54.466,31.013
39080,232.094,54.532,30.999
39113,232.032,54.244,30.798
39147,232.232,54.868,31.227
39180,232.412,55.147,31.34
39213,232.468,55.249,31.337
39247,232.432,55.099,31.182
39280,232.441,55.089,31.156
39313,232.549,55.239,31.27
39347,232.62,55.835,31.65
39380,232.699,55.414,31.301
39413,232.603,55.332,31.259
39447,232.895,56.328,31.964
39480,233.158,57.284,32.418
39513,232.938,56.357,31.698
39546,232.397,55.732,31.171
39580,231.919,54.682,30.594
39613,231.891,55.016,30.937
39646,232.196,55.904,31.545
39680,232.537,56.435,31.882
39713,232.375,55.831,31.44
39746,232.481,55.676,31.38
39780,232.293,55.047,30.982
39813,232.319,55.268,31.165
39846,232.15,54.58,30.681
39880,231.987,54.415,30.663
39913,232.17,54.777,31.03
39946,232.21,54.627,30.981
39980,232.363,54.9,31.228
40013,232.483,54.925,31.232
40046,232.606,55.188,31.414
40080,232.595,54.781,31.116
40113,232.572,54.316,30.829
40146,232.445,53.359,30.297
40179,232.571,53.594,30.614
40213,232.572,53.68,30.729
40246,232.866,54.818,31.49
40279,232.974,54.997,31.465
40313,232.881,54.861,31.318
40346,233.027,55.076,31.419
40379,232.885,54.299,30.869
40413,232.81,54.08,30.733
40446,232.396,53.611,30.323
40479,231.834,52.78,29.839
40513,231.758,53.148,30.214
40546,232.03,54.009,30.884
40579,232.191,54.159,30.969
40613,232.221,54.349,31.083
40646,232.378,54.418,31.109
40679,232.333,54.177,30.902
40713,232.261,54.007,30.775
40746,232.25,54.157,30.864
40779,232.236,54.127,30.843
40812,232.202,54.124,30.879
40846,232.269,54.091,30.877
40879,232.351,54.294,31.069
40912,232.541,54.86,31.468
40946,232.742,55.089,31.578
40979,232.67,54.679,31.23
41012,232.672,54.624,31.199
41046,232.747,54.754,31.325
41079,232.809,54.826,31.386
41112,232.912,55.049,31.517
41146,232.984,55.253,31.616
41179,232.932,55.006,31.404
41212,233.003,55.582,31.826
41246,233.208,55.908,31.993
41279,233.21,55.761,31.825
41312,233.19,55.608,31.703
41346,233.115,55.37,31.489
41379,232.574,54.384,30.749
41412,232.143,53.743,30.486
41445,231.964,53.745,30.631
41479,232.282,54.307,31.132
41512,232.39,54.623,31.397
41545,232.603,55.139,31.731
41579,232.709,55.332,31.774
41612,232.732,55.172,31.589
41645,232.579,54.902,31.361
41679,232.537,54.848,31.301
41712,232.445,54.622,31.154
41745,232.454,54.8,31.345
41779,232.679,55.39,31.773
41812,232.646,55.11,31.537
41845,232.757,55.322,31.71
41879,232.75,54.878,31.405
41912,232.73,54.712,31.34
41945,232.914,55.217,31.746
41979,232.933,55.057,31.609
42012,232.949,55.105,31.651
42045,233.042,55.151,31.672
42079,233.002,54.939,31.521
42112,233.056,55.056,31.637
42145,233.069,54.868,31.514
42178,232.905,54.052,30.999
42212,232.988,53.853,31.003
42245,232.949,53.912,31.086
42278,232.597,52.935,30.379
42312,232.052,52.274,30.026
42345,231.926,52.582,30.323
42378,232.184,53.209,30.85
42412,232.371,53.671,31.152
42445,232.605,54.184,31.476
42478,232.767,54.425,31.57
42512,232.893,54.839,31.766
42545,232.731,54.17,31.213
42578,232.634,54.04,31.125
42612,232.637,54.141,31.212
42645,232.651,54.186,31.239
42678,232.669,54.062,31.2
42712,232.776,54.39,31.472
42745,232.892,54.454,31.492
42778,233.02,55.061,31.895
42811,233.226,55.549,32.133
42845,233.362,56.088,32.348
42878,233.384,55.911,32.136
42911,233.273,55.485,31.814
42945,233.417,56.141,32.277
42978,233.449,55.827,32.012
43011,233.385,55.751,31.948
43045,233.49,56.153,32.235
43078,233.558,56.478,32.399
43111,233.655,56.547,32.393
43145,233.544,56.164,32.055
43178,233.246,55.806,31.698
43211,232.858,55.611,31.473
43245,232.614,55.751,31.586
43278,232.73,56.393,32.076
43311,233.006,57.086,32.508
43345,233.207,57.617,32.821
43378,233.178,56.589,32.127
43411,232.741,55.046,31.224
43444,232.723,55.535,31.666
43478,232.981,56.304,32.221
43511,233.052,56.454,32.264
43544,233.141,56.995,32.552
43578,233.452,57.878,33.027
43611,233.338,57.102,32.476
43644,233.358,56.863,32.347
43678,233.375,56.84,32.363
43711,233.457,56.608,32.265
43744,233.408,56.429,32.184
43778,233.519,56.869,32.506
43811,233.719,57.11,32.642
43844,233.719,57.195,32.656
43878,233.843,57.452,32.781
43911,233.909,57.762,32.941
43944,233.965,57.817,32.922
43978,233.975,57.938,32.987
44011,233.987,57.66,32.793
44044,233.853,57.22,32.476
44077,233.534,56.623,32.019
44111,233.14,56.189,31.741
44144,232.929,56.002,31.748
44177,233.142,56.772,32.42
44211,233.477,57.819,33.066
44244,233.735,58.643,33.413
44277,233.787,58.156,33.088
44311,233.687,57.777,32.827
44344,233.608,57.617,32.724
44376,233.472,57.079,32.374
44411,233.316,56.784,32.244
44444,233.388,57.106,32.544
44477,233.444,56.95,32.475
44511,233.463,56.882,32.483
44544,233.495,57.412,32.819
44577,233.93,59.072,33.737
44611,234.108,59.739,33.923
44644,234.046,59.409,33.667
44677,234.0,59.266,33.57
44710,234.008,59.162,33.518
44744,234.065,59.18,33.549
44777,234.076,59.179,33.556
44810,234.131,59.047,33.523
44844,234.023,58.695,33.288
44876,234.125,58.699,33.369
44910,234.167,58.815,33.475
44944,234.055,58.318,33.052
44977,233.507,57.243,32.335
45010,233.192,56.856,32.216
45044,233.336,57.443,32.74
45077,233.624,58.067,33.238
45109,233.831,58.023,33.206
45144,233.803,57.679,32.979
45177,233.797,57.373,32.818
45210,233.788,57.209,32.739
45244,233.648,56.319,32.155
45277,233.452,56.219,32.221
45310,233.594,56.537,32.55
45342,233.631,56.045,32.244
45376,233.595,55.716,32.108
45410,233.734,56.283,32.605
45443,233.941,56.728,32.89
45477,233.945,56.405,32.602
45510,233.901,56.311,32.558
45543,234.016,56.599,32.789
45577,234.174,57.196,33.151
45609,234.254,57.116,33.02
45643,234.212,57.133,32.994
45677,234.297,57.404,33.139
45710,234.361,57.586,33.233
45743,234.392,57.676,33.239
45777,234.241,56.802,32.606
45810,233.499,54.622,31.644
45842,232.91,53.546,31.285
45876,232.893,53.89,31.496
45910,232.939,54.018,31.642
45943,233.171,54.688,31.982
45977,233.344,54.774,32.041
46010,233.37,54.666,31.99
46043,233.317,54.266,31.778
46075,233.132,53.713,31.457
46109,232.888,52.718,30.951
46143,232.57,51.537,30.4
46176,232.541,51.206,30.379
46210,232.793,51.711,30.814
46243,232.959,51.812,30.917
46276,232.961,51.537,30.771
46310,233.05,51.803,30.952
46342,233.288,52.468,31.361
46376,233.347,52.274,31.176
46410,233.354,52.46,31.266
46443,233.434,52.819,31.421
46476,233.589,53.117,31.53
46510,233.416,52.776,31.226
46543,233.534,53.143,31.446
46575,233.593,53.36,31.553
46609,233.743,53.781,31.806
46643,233.793,54.083,31.936
46676,233.725,53.559,31.445
46709,233.031,52.074,30.55
46743,232.569,51.583,30.395
46776,232.535,51.516,30.505
46809,232.7,52.076,30.926
46842,232.851,52.095,31.001
46876,233.054,52.587,31.279
46909,233.33,53.86,31.924
46943,233.432,54.321,31.97
46976,233.267,53.845,31.614
47009,232.931,52.867,30.987
47043,232.889,53.102,31.221
47075,233.144,53.5,31.532
47109,233.026,52.815,31.114
47143,233.145,53.217,31.426
47176,233.441,53.983,31.903
47209,233.437,53.722,31.693
47243,233.483,53.794,31.719
47276,233.643,54.263,31.986
47309,233.647,54.025,31.762
47342,233.545,53.653,31.479
47376,233.621,53.793,31.639
47409,233.736,54.412,32.039
47442,233.797,54.205,31.808
47476,233.667,54.047,31.701
47509,233.819,54.154,31.786
47542,233.611,53.559,31.358
47575,233.872,54.209,31.895
47609,233.757,53.803,31.535
47642,233.2,52.719,30.742
47676,232.617,51.957,30.409
47709,232.318,51.779,30.416
47742,232.65,52.617,31.055
47776,232.922,53.112,31.404
47809,233.085,53.235,31.483
47842,233.186,53.312,31.496
47876,233.137,52.935,31.212
47909,233.151,53.172,31.349
47942,233.115,53.232,31.337
47975,233.08,53.252,31.314
48009,233.141,53.483,31.467
48042,233.285,53.857,31.703
48075,233.392,53.994,31.752
48109,233.423,54.055,31.76
48142,233.57,54.558,32.053
48175,233.73,54.801,32.136
48209,233.543,54.034,31.556
48242,233.593,53.985,31.559
48275,233.414,53.364,31.144
48309,233.55,54.096,31.763
48342,233.54,53.817,31.556
48375,233.667,54.123,31.792
48409,233.671,53.982,31.653
48442,233.701,54.18,31.834
48475,233.925,54.491,32.01
48509,233.597,53.536,31.221
48542,233.003,52.826,30.696
48575,232.866,52.981,30.841
48608,232.776,53.086,31.009
48642,233.081,54.237,31.845
48675,233.291,54.195,31.782
48708,233.387,54.658,32.065
48742,233.598,55.185,32.326
48775,233.722,55.622,32.469
48808,233.548,55.249,32.066
48842,233.299,54.741,31.668
48875,233.239,54.802,31.763
48908,233.469,55.485,32.271
48942,233.459,55.067,31.901
48975,233.394,54.847,31.808
49008,233.636,55.391,32.243
49042,233.709,55.439,32.247
49075,233.752,55.285,32.125
49108,233.847,55.793,32.466
49142,233.962,56.176,32.659
49175,234.131,56.518,32.803
49208,234.14,56.818,32.904
49241,234.166,56.943,32.887
49275,234.234,57.546,33.166
49308,234.445,58.595,33.701
49341,234.457,58.367,33.394
49375,234.318,58.138,33.189
49408,234.067,57.398,32.598
49441,233.454,56.536,32.044
49475,233.035,56.055,31.883
49508,233.102,56.279,32.156
49541,233.162,56.114,32.135
49575,233.302,55.844,32.115
49608,233.499,56.394,32.603
49641,233.981,57.434,33.231
49675,233.954,56.936,32.783
49708,233.47,55.633,31.914
49741,233.396,55.574,31.944
49775,233.436,55.758,32.155
49808,233.533,55.858,32.235
49841,233.57,55.896,32.248
49875,233.675,56.178,32.47
49908,233.847,56.538,32.707
49941,233.821,56.089,32.317
49974,233.881,56.4,32.574
50008,234.057,56.592,32.698
50041,233.979,55.882,32.178
50074,233.82,55.55,32.011
50108,233.954,55.897,32.345
50141,234.123,56.041,32.438
50174,234.044,56.269,32.566
50208,234.279,56.865,32.893
50241,234.063,56.231,32.339
50274,234.2,56.578,32.632
50308,234.16,56.164,32.297
50341,233.596,54.633,31.438
50374,232.859,53.05,30.882
50408,232.611,52.616,30.84
50441,232.835,53.046,31.175
50474,233.241,53.679,31.544
50508,233.46,54.021,31.729
50541,233.57,54.132,31.752
50574,233.53,54.156,31.713
50607,233.387,53.872,31.504
50641,233.27,54.155,31.577
50674,233.193,54.008,31.47
50707,233.096,53.712,31.301
50741,233.104,53.771,31.366
50774,233.149,53.761,31.386
50807,233.244,53.95,31.518
50841,233.404,54.37,31.775
50874,233.289,53.814,31.333
50907,233.336,53.948,31.468
50941,233.552,54.905,32.065
50974,233.535,54.744,31.857
51007,233.648,55.318,32.196
51041,233.779,55.604,32.253
51074,233.536,54.709,31.564
51107,233.537,54.972,31.782
51141,233.471,54.497,31.437
51174,233.623,55.25,32.044
51207,233.759,55.358,32.047
51240,233.448,54.391,31.259
51274,232.732,53.354,30.683
51307,232.344,53.101,30.633
51340,232.276,53.083,30.723
51374,232.469,53.687,31.163
51407,232.872,54.393,31.625
51440,233.015,54.7,31.768
51474,233.242,55.317,32.088
51507,233.298,55.194,31.926
51540,233.043,54.579,31.455
51574,232.875,54.236,31.233
51607,232.897,54.449,31.4
51640,232.978,54.538,31.477
51674,232.961,54.368,31.375
51707,233.059,54.607,31.583
51740,233.252,55.085,31.912
51774,233.41,55.138,31.884
51807,233.381,55.069,31.815
51840,233.375,54.435,31.388
51873,233.408,54.75,31.704
51907,233.751,55.901,32.428
51940,233.862,56.202,32.476
51973,233.69,55.583,31.953
52007,233.671,55.715,32.05
52040,233.722,55.57,31.932
52073,233.513,54.92,31.43
52107,232.862,53.869,30.801
52140,232.422,53.35,30.647
52173,232.264,53.286,30.717
52207,232.503,53.924,31.21
52240,232.567,53.678,31.088
52273,232.672,53.86,31.231
52307,232.84,54.239,31.476
52340,232.683,53.612,30.998
52373,232.729,53.884,31.179
52407,232.6,53.578,30.932
52440,232.546,53.615,30.972
52473,232.614,53.822,31.148
52506,232.589,53.661,31.054
52540,232.644,53.571,31.032
52573,232.709,53.489,31.041
52606,232.873,53.972,31.414
52640,232.91,53.819,31.264
52673,232.959,54.077,31.43
52706,233.136,54.64,31.754
52740,233.15,54.69,31.672
52773,233.162,54.825,31.688
52806,233.183,54.939,31.727
52840,233.201,54.722,31.54
52873,232.889,54.014,30.95
52906,232.261,53.027,30.398
52940,231.821,52.289,30.162
52973,231.815,52.526,30.435
53006,231.968,52.82,30.713
53040,232.179,53.048,30.905
53073,232.309,53.219,31.025
53106,232.414,53.313,31.064
53139,232.267,52.466,30.441
53173,232.147,52.606,30.561
53206,232.152,52.909,30.754
53239,232.152,52.745,30.608
53273,232.16,52.654,30.591
53306,232.219,52.666,30.664
53339,232.317,52.746,30.749
53373,232.418,52.841,30.833
53406,232.429,52.581,30.662
53439,232.536,53.037,31.013
53473,232.653,53.243,31.11
53506,232.637,53.145,30.992
53539,232.772,53.662,31.336
53573,232.775,53.42,31.068
53606,232.409,52.561,30.349
53639,231.866,52.107,30.023
53673,231.686,52.239,30.139
53706,231.707,52.465,30.382
53739,231.912,53.041,30.836
53772,232.131,53.3,31.023
53806,232.251,53.423,31.106
53839,232.365,53.392,31.041
53872,232.383,53.361,30.999
53906,232.254,53.175,30.781
53939,232.026,52.767,30.468
53972,232.014,52.639,30.41
54006,232.021,52.96,30.725
54039,232.23,53.252,30.924
54072,232.089,52.819,30.614
54106,232.299,53.009,30.799
54139,232.207,52.701,30.607
54172,232.435,53.357,31.096
54206,232.632,54.211,31.575
54239,232.803,54.495,31.619
54272,232.524,53.719,30.976
54306,231.973,52.882,30.329
54339,231.614,52.5,30.128
54372,231.595,52.85,30.423
54406,231.696,52.863,30.53
54439,231.85,53.23,30.858
54472,232.25,54.043,31.414
54505,232.449,54.602,31.66
54539,232.743,55.547,32.041
54572,232.503,54.895,31.511
54605,232.406,55.051,31.56
54639,232.55,55.626,31.873
54672,232.348,54.577,31.177
54705,232.362,54.653,31.313
54739,232.582,54.984,31.56
54772,232.777,55.537,31.918
54805,232.694,54.758,31.346
54839,232.854,55.403,31.843
54872,232.956,55.334,31.76
54905,233.016,55.391,31.794
54939,233.061,55.009,31.537
54972,232.666,54.192,30.884
55005,232.132,53.577,30.483
55039,231.77,53.206,30.362
55072,231.794,53.412,30.615
55105,231.924,53.553,30.816
55138,232.083,53.583,30.894
55172,232.168,53.85,31.127
55205,232.36,54.142,31.294
55238,232.388,54.243,31.261
55272,232.202,53.82,30.877
55305,232.147,53.621,30.736
55338,231.957,53.172,30.492
55372,232.141,53.646,30.931
55405,232.22,53.456,30.835
55438,232.247,53.549,30.947
55472,232.476,53.994,31.268
55505,232.596,54.247,31.41
55538,232.57,53.89,31.103
55572,232.487,53.601,30.909
55605,232.582,53.869,31.118
55638,232.646,53.94,31.168
55672,232.596,53.788,31.052
55705,232.692,53.956,31.158
55738,232.257,52.978,30.361
55771,231.563,52.172,29.893
55805,231.276,52.068,29.935
55838,231.344,52.427,30.259
55871,231.551,52.818,30.572
55905,231.739,53.114,30.762
55938,231.834,53.265,30.822
55971,231.778,52.872,30.515
56005,231.705,52.707,30.387
56038,231.622,52.528,30.25
56071,231.322,51.736,29.746
56105,231.539,52.629,30.506
56138,231.506,52.159,30.17
56171,231.671,52.66,30.574
56205,231.798,52.592,30.518
56238,231.896,52.962,30.785
56271,232.117,53.465,31.04
56305,232.059,53.381,30.898
56338,232.195,53.605,31.002
56371,232.094,53.287,30.719
56404,232.211,53.707,31.037
56438,232.351,53.984,31.169
56471,232.292,53.683,30.906
56504,232.345,53.839,31.05
56538,232.436,53.955,31.103
56571,232.353,53.558,30.77
56604,231.68,52.236,29.932
56638,231.015,51.224,29.558
56671,230.637,50.364,29.301
56704,230.84,50.972,29.747
56738,231.063,51.07,29.866
56771,231.261,51.399,30.07
56804,231.331,51.313,30.007
56838,231.329,51.29,29.999
56871,231.345,51.492,30.054
56904,231.126,50.93,29.675
56938,231.126,51.166,29.827
56971,231.285,51.736,30.178
57004,231.411,51.924,30.26
57037,231.474,51.851,30.168
57071,231.443,51.569,29.967
57104,231.591,52.059,30.33
57137,231.743,52.43,30.539
57171,231.848,52.484,30.49
57204,231.74,52.298,30.321
57237,231.944,52.863,30.7
57271,231.994,52.676,30.5
57304,231.887,52.449,30.32
57337,232.032,53.084,30.773
57371,232.167,53.411,30.905
57404,232.127,53.316,30.759
57437,232.133,53.149,30.579
57471,231.559,52.185,29.801
57504,230.965,51.58,29.454
57537,230.723,51.369,29.426
57571,230.745,51.326,29.533
57604,230.914,51.915,30.02
57637,231.363,52.974,30.706
57671,231.264,52.08,30.08
57704,231.242,52.173,30.137
57737,231.344,52.446,30.281
57770,231.159,51.953,29.864
57804,230.892,51.366,29.461
57837,231.032,52.149,30.087
57870,231.263,52.568,30.335
57904,231.121,51.855,29.796
57937,231.193,51.992,29.982
57970,231.377,52.236,30.174
58004,231.355,51.815,29.895
58037,231.463,51.973,30.063
58070,231.452,51.889,30.014
58104,231.679,52.57,30.498
58137,231.763,52.384,30.283
58170,231.649,52.09,30.073
58204,231.792,52.443,30.331
58237,231.707,52.166,30.125
58270,231.823,52.04,30.052
58304,231.672,51.901,29.95
58337,231.297,51.343,29.433
58370,230.486,50.36,28.889
58403,230.193,50.33,28.974
58437,230.312,50.678,29.29
58470,230.69,51.295,29.76
58503,231.033,52.091,30.206
58537,231.069,51.476,29.827
58570,231.053,51.368,29.755
58603,231.134,51.488,29.773
58637,230.961,51.36,29.612
58670,231.027,51.671,29.77
58703,230.92,51.661,29.706
58737,230.952,52.14,30.003
58770,231.097,52.348,30.118
58803,231.067,51.913,29.805
58837,231.348,52.357,30.209
58870,231.519,52.558,30.347
58903,231.603,52.546,30.29
58937,231.659,52.817,30.449
58970,231.789,52.791,30.397
59003,231.852,53.018,30.527
59036,231.978,53.577,30.84
59070,232.085,53.533,30.709
59103,231.748,52.712,30.006
59136,231.08,51.752,29.386
59170,230.862,51.685,29.472
59203,230.805,51.502,29.467
59236,231.014,51.992,29.904
59270,231.349,52.564,30.33
59303,231.468,52.519,30.271
59336,231.745,53.021,30.609
59370,231.655,52.637,30.26
59403,231.596,52.566,30.155
59436,231.443,52.261,29.901
59470,231.531,52.785,30.325
59503,231.762,53.037,30.467
59536,231.783,52.784,30.284
59570,232.007,53.569,30.846
59603,232.17,54.029,31.062
59636,232.337,54.262,31.113
59669,232.268,53.996,30.861
59703,232.31,54.016,30.876
59736,232.384,54.154,30.958
59769,232.272,53.3,30.344
59803,232.163,53.169,30.354
59836,232.338,53.441,30.615
59869,231.774,52.059,29.659
59903,230.983,51.029,29.227
59936,230.706,51.168,29.39
59969,230.881,51.641,29.736
60003,231.176,52.144,30.083
60036,231.393,52.477,30.277
60069,231.524,52.56,30.309
60103,231.452,52.371,30.162
60136,231.602,52.686,30.338
60169,231.572,52.502,30.196
60203,231.351,52.048,29.869
60236,231.371,51.898,29.791
60269,231.331,52.131,29.997
60302,231.556,52.224,30.094
60336,231.649,52.376,30.229
60369,231.736,52.351,30.207
60402,231.795,52.436,30.255
60436,231.977,53.119,30.728
60469,232.177,53.532,30.902
60501,232.03,53.073,30.49
60536,232.1,53.4,30.722
60569,232.228,53.813,30.959
60602,232.305,53.7,30.818
60636,232.166,53.371,30.487
60669,231.272,51.731,29.556
60702,230.947,51.808,29.681
60736,231.095,52.533,30.185
60769,231.107,52.306,30.102
60802,231.212,52.331,30.153
60836,231.414,52.891,30.513
60869,231.47,52.497,30.25
60902,231.156,51.694,29.693
60935,231.164,51.827,29.831
60969,231.188,51.803,29.82
61001,231.113,51.769,29.796
61035,231.049,51.286,29.475
61069,231.23,51.848,30.023
61102,231.483,52.478,30.414
61135,231.507,52.425,30.297
61169,231.598,52.421,30.268
61202,231.614,52.452,30.274
61234,231.73,52.657,30.418
61269,231.909,53.188,30.75
61302,231.948,53.148,30.623
61335,231.927,52.901,30.423
61369,232.001,53.284,30.686
61402,232.17,53.937,31.074
61435,232.166,53.708,30.842
61469,231.9,52.846,30.132
61501,231.306,52.2,29.662
61535,230.934,51.757,29.48
61568,230.785,51.678,29.524
61602,231.019,52.29,30.086
61635,231.385,53.063,30.636
61668,231.487,53.185,30.642
61702,231.498,52.861,30.378
61734,231.478,52.97,30.408
61768,231.396,52.827,30.235
61802,231.291,52.745,30.196
61835,231.331,52.433,29.987
61868,231.21,52.197,29.933
61902,231.409,52.499,30.237
61935,231.591,52.651,30.354
61967,231.411,52.035,29.897
62001,231.522,52.621,30.36
62035,231.772,53.099,30.658
62068,231.779,53.096,30.581
62102,231.77,52.948,30.418
62135,231.711,52.737,30.253
62168,231.787,53.096,30.538
62202,231.794,52.952,30.404
62234,231.84,53.043,30.468
62268,231.871,53.045,30.498
62301,232.024,53.198,30.591
62335,231.784,52.528,29.999
62368,231.15,51.742,29.429
62401,230.878,51.672,29.435
62435,230.83,51.799,29.637
62467,231.127,52.538,30.238
62501,231.407,52.856,30.463
62535,231.482,52.793,30.398
62568,231.577,52.887,30.432
62601,231.535,52.716,30.24
62635,231.44,52.631,30.154
62668,231.349,52.396,29.967
62700,231.211,52.052,29.761
62734,231.371,52.435,30.134
62768,231.478,52.468,30.184
62801,231.622,52.811,30.441
62835,231.734,53.078,30.568
62868,231.741,52.867,30.375
62901,231.87,53.12,30.585
62934,231.983,53.198,30.593
62967,231.884,53.105,30.475
63001,231.987,53.42,30.69
63034,232.118,53.755,30.865
63068,232.103,53.66,30.714
63101,232.141,53.656,30.711
63134,232.121,53.463,30.578
63168,231.844,52.923,30.077
63200,231.267,52.309,29.624
63234,230.886,51.896,29.433
63268,230.932,52.32,29.855
63301,231.262,52.866,30.279
63334,231.288,52.873,30.291
63368,231.511,53.418,30.666
63401,231.571,53.307,30.526
63434,231.493,52.98,30.229
63467,231.319,52.682,30.0
63501,231.26,52.619,29.997
63534,231.22,52.637,30.051
63567,231.383,52.961,30.317
63601,231.345,52.635,30.075
63634,231.463,52.986,30.379
63667,231.658,53.111,30.462
63700,231.673,53.348,30.61
63734,231.777,53.289,30.502
63767,231.695,52.747,30.114
63801,231.688,52.758,30.186
63834,231.885,53.393,30.642
63867,231.828,53.06,30.371
63901,231.876,53.373,30.582
63934,231.91,53.174,30.404
63967,231.93,53.437,30.603
64001,232.081,53.776,30.768
64034,231.52,52.697,29.822
64067,230.831,51.992,29.398
64101,230.668,52.074,29.537
64134,230.852,52.573,29.985
64167,231.007,52.658,30.047
64200,231.086,52.716,30.116
64234,231.216,52.913,30.254
64267,231.285,53.258,30.449
64300,231.329,53.147,30.26
64334,231.036,52.561,29.795
64367,231.012,52.566,29.851
64400,231.022,52.494,29.872
64434,231.057,52.559,29.961
64467,231.156,52.605,30.036
64500,231.302,52.897,30.287
64534,231.44,52.999,30.318
64567,231.462,53.134,30.37
64600,231.66,53.573,30.626
64634,231.632,53.396,30.418
64667,231.703,53.58,30.535
64700,231.724,53.431,30.406
64734,231.714,53.544,30.47
64767,231.794,53.618,30.498
64800,231.726,53.412,30.342
64833,231.695,52.763,29.936
64867,231.624,52.774,30.002
64900,231.271,51.987,29.394
64933,230.593,51.239,28.96
64967,230.44,51.394,29.153
65000,230.528,51.91,29.58
65033,230.828,52.368,29.929
65067,230.988,52.709,30.108
65100,231.194,53.12,30.327
65133,231.212,53.018,30.199
65167,231.1,52.689,29.87
65200,230.967,52.497,29.708
65233,230.916,52.41,29.688
65267,230.765,51.793,29.306
65300,230.881,52.066,29.616
65333,231.087,52.664,30.067
65367,231.267,53.004,30.267
65400,231.363,53.067,30.237
65433,231.416,53.167,30.272
65466,231.5,53.403,30.409
65500,231.751,54.017,30.772
65533,231.844,54.294,30.832
65566,231.87,54.386,30.784
65600,231.927,54.594,30.861
65633,231.877,54.437,30.678
65666,231.905,54.426,30.671
65700,231.931,54.553,30.743
65733,232.059,54.487,30.712
65766,231.87,53.888,30.225
65800,231.361,53.172,29.702
65833,230.762,52.501,29.371
65866,230.837,53.06,29.847
65900,231.106,53.793,30.427
65933,231.41,54.578,30.911
65966,231.783,55.653,31.418
66000,231.93,55.496,31.259
66033,231.821,55.234,31.031
66066,231.679,54.75,30.694
66099,231.499,54.393,30.471
66133,231.339,53.923,30.206
66166,231.376,54.074,30.378
66199,231.615,54.38,30.628
66233,231.697,54.678,30.789
66266,231.955,55.222,31.14
66299,232.15,55.841,31.468
66333,232.287,56.066,31.498
66366,232.325,56.211,31.515
66399,232.308,55.88,31.236
66433,232.357,56.031,31.314
66466,232.404,55.999,31.238
66499,232.308,55.868,31.129
66533,232.419,56.274,31.445
66566,232.552,56.249,31.372
66599,232.396,55.877,31.044
66633,231.855,54.678,30.283
66666,231.198,53.922,29.976
66699,231.155,54.167,30.229
66733,231.225,54.364,30.448
66766,231.525,55.14,30.97
66799,231.709,55.066,30.925
66832,231.78,55.176,30.964
66866,231.951,55.687,31.239
66899,231.88,55.476,30.997
66932,231.681,54.948,30.563
66966,231.575,54.757,30.482
66999,231.628,55.052,30.761
67032,231.789,55.369,30.978
67066,231.836,55.371,30.964
67099,231.948,55.555,31.086
67132,232.075,55.828,31.264
67166,232.166,56.122,31.407
67199,232.279,56.262,31.422
67232,232.278,56.32,31.415
67266,232.321,56.42,31.456
67299,232.38,56.701,31.603
67332,232.234,56.051,31.087
67366,232.23,56.083,31.172
67399,232.215,55.747,30.989
67432,232.103,55.515,30.84
67465,231.567,54.452,30.134
67499,230.955,53.648,29.843
67532,230.903,54.038,30.189
67565,231.167,54.505,30.571
67599,231.261,54.556,30.615
67632,231.508,55.194,31.036
67665,231.733,55.51,31.195
67699,231.66,55.307,30.976
67732,231.593,54.726,30.535
67765,231.305,54.341,30.292
67799,231.347,54.243,30.292
67832,231.31,54.364,30.463
67865,231.45,54.413,30.533
67899,231.426,54.259,30.464
67932,231.566,54.637,30.788
67965,231.795,55.094,31.067
67999,231.841,55.106,30.996
68032,231.782,54.575,30.596
68065,231.826,54.905,30.883
68098,231.992,55.078,30.975
68132,231.9,54.878,30.802
68165,231.944,55.06,30.935
68198,231.943,54.842,30.753
68232,232.029,55.18,31.044
68265,232.042,54.729,30.662
68298,231.489,53.699,29.908
68332,230.83,52.834,29.549
68365,230.58,52.787,29.645
68398,230.766,53.233,30.056
68432,230.901,53.324,30.151
68465,231.091,53.751,30.442
68498,231.338,54.293,30.759
68532,231.353,54.143,30.56
68565,231.256,53.929,30.344
68598,231.12,53.77,30.196
68632,231.089,53.842,30.24
68665,231.126,54.047,30.396
68698,231.139,53.842,30.26
68731,231.202,54.044,30.438
68765,231.266,54.051,30.453
68798,231.417,54.29,30.622
68831,231.453,54.363,30.647
68865,231.628,54.816,30.921
68898,231.574,54.515,30.651
68931,231.588,54.539,30.661
68965,231.609,54.383,30.543
68998,231.59,54.409,30.581
69031,231.708,54.793,30.859
69065,231.788,54.802,30.827
69098,231.526,54.103,30.225
69131,230.997,53.242,29.662
69165,230.544,52.733,29.459
69198,230.444,52.694,29.545
69231,230.714,53.439,30.16
69265,231.021,53.987,30.538
69298,231.184,54.075,30.573
69331,231.342,54.38,30.726
69364,231.358,54.257,30.544
69398,231.046,53.517,29.953
69431,230.97,53.382,29.914
69464,230.961,53.434,30.027
69498,231.128,53.934,30.411
69531,231.197,53.825,30.319
69564,231.263,53.895,30.377
69598,231.378,54.043,30.474
69631,231.521,54.363,30.7
69664,231.702,54.775,30.937
69698,231.808,54.859,30.915
69731,231.753,54.958,30.912
69764,231.922,55.457,31.21
69798,232.057,55.551,31.203
69831,232.011,55.365,31.011
69864,231.712,54.478,30.319
69898,231.092,53.661,29.826
69931,230.8,53.399,29.773
69964,230.831,53.615,30.027
69997,231.025,53.885,30.303
70031,231.249,54.43,30.721
70064,231.489,54.671,30.856
70097,231.547,54.697,30.812
70131,231.525,54.57,30.651
70164,231.439,54.545,30.588
70197,231.342,54.348,30.428
70231,231.315,54.304,30.444
70264,231.427,54.565,30.659
70297,231.547,54.782,30.813
70331,231.679,55.034,30.981
70364,231.76,55.177,31.041
70397,231.951,55.588,31.287
70431,231.925,55.407,31.089
70464,232.023,55.667,31.256
70497,232.151,56.211,31.533
70531,232.115,55.937,31.278
70564,232.138,56.041,31.322
70597,232.206,56.221,31.424
70631,232.217,56.081,31.318
70664,232.07,55.558,30.883
70697,231.386,54.32,30.154
70730,230.894,53.774,30.017
70764,230.894,54.058,30.302
70797,231.143,54.424,30.63
70830,231.245,54.484,30.677
70864,231.352,54.543,30.747
70897,231.4,54.415,30.66
70930,231.424,54.425,30.649
70964,231.368,54.312,30.539
70997,231.193,53.9,30.255
71030,231.258,54.24,30.55
71064,231.435,54.599,30.815
71097,231.419,54.328,30.597
71130,231.522,54.562,30.779
71164,231.585,54.381,30.668
71197,231.648,54.623,30.851
71230,231.755,54.734,30.915
71264,231.703,54.587,30.789
71297,231.868,54.995,31.083
71330,231.913,54.894,30.962
71363,231.81,54.78,30.849
71397,231.938,55.147,31.134
71430,232.032,55.08,31.051
71463,231.96,55.071,31.05
71497,232.065,54.999,30.954
71530,231.403,53.684,30.015
71563,230.859,52.964,29.751
71597,230.753,53.15,29.964
71630,230.899,53.396,30.233
71663,231.071,53.739,30.505
71697,231.212,53.762,30.495
71730,231.224,53.763,30.488
71763,231.364,53.837,30.529
71797,231.124,53.259,30.096
71830,231.05,53.209,30.087
71863,231.086,53.352,30.222
71897,231.124,53.441,30.314
71930,231.166,53.26,30.203
71963,231.227,53.413,30.379
71996,231.391,53.746,30.625
72030,231.458,53.719,30.57
72063,231.494,53.737,30.569
72096,231.556,53.946,30.676
72130,231.679,54.265,30.872
72163,231.745,54.329,30.839
72196,231.789,54.543,30.956
72230,231.713,54.163,30.65
72263,231.812,54.487,30.918
72296,231.828,54.447,30.876
72330,231.883,54.498,30.886
72363,231.721,54.096,30.49
72396,231.041,52.918,29.758
72430,230.638,52.545,29.659
72463,230.721,52.897,30.024
72496,231.116,53.652,30.577
72530,231.357,54.179,30.881
72563,231.481,54.181,30.845
72596,231.385,53.518,30.355
72629,231.282,53.24,30.191
72663,231.297,53.483,30.382
72696,231.302,53.453,30.348
72729,231.294,53.355,30.282
72763,231.359,53.314,30.297
72796,231.356,53.406,30.369
72829,231.538,53.505,30.481
72863,231.682,54.068,30.878
72896,231.86,54.292,30.971
72929,232.001,54.41,31.013
72963,231.977,54.335,30.915
72996,232.124,54.692,31.158
73029,232.188,54.799,31.186
73063,232.224,54.877,31.188
73096,232.29,55.235,31.389
73129,232.597,56.411,32.049
73163,232.52,56.174,31.673
73196,231.815,54.778,30.672
73229,231.309,54.055,30.353
73262,231.3,54.384,30.654
73296,231.661,55.154,31.247
73329,231.793,55.133,31.227
73362,231.902,55.317,31.311
73396,232.03,55.44,31.368
73429,232.016,55.121,31.115
73462,231.754,54.496,30.662
73496,231.766,54.411,30.675
73529,231.727,54.483,30.808
73562,231.99,55.12,31.32
73596,232.041,54.861,31.085
73629,232.114,55.137,31.27
73662,232.33,55.611,31.58
73696,232.371,55.679,31.559
73729,232.417,55.576,31.435
73762,232.385,55.463,31.343
73796,232.554,56.157,31.832
73829,232.647,56.171,31.739
73862,232.483,55.648,31.336
73895,232.617,56.372,31.875
73929,232.868,57.091,32.27
73962,232.774,56.651,31.885
73995,232.586,55.951,31.321
74029,231.954,54.9,30.689
74062,231.459,54.27,30.467
74095,231.382,54.235,30.609
74129,231.637,54.777,31.069
74162,231.894,55.398,31.465
74195,232.064,55.677,31.582
74229,232.111,55.506,31.423
74262,231.999,55.29,31.219
74295,232.019,55.318,31.219
74329,231.887,54.976,30.976
74362,231.931,55.463,31.384
74395,232.052,55.367,31.299
74429,232.064,55.51,31.42
74462,232.247,55.735,31.592
74495,232.316,55.8,31.601
74529,232.294,55.886,31.624
74562,232.521,56.425,31.997
74595,232.654,56.825,32.161
74628,232.699,56.774,32.025
74662,232.552,56.375,31.717
74695,232.697,56.663,31.948
74728,232.563,56.198,31.601
74762,232.673,56.653,31.985
74795,232.88,57.072,32.248
74828,232.762,56.766,31.982
74862,232.776,56.72,31.875
74895,232.079,55.149,30.962
74928,231.557,54.676,30.803
74962,231.641,55.125,31.171
74995,231.753,55.272,31.331
75028,232.093,56.109,31.863
75062,232.235,56.092,31.835
75095,232.224,56.052,31.774
75128,232.223,55.829,31.597
75162,232.132,56.057,31.671
75195,232.144,56.068,31.617
75228,232.071,55.945,31.531
75261,232.123,56.052,31.623
75295,232.122,55.752,31.438
75328,232.116,55.558,31.342
75361,232.156,55.587,31.428
75395,232.314,55.816,31.645
75428,232.446,56.105,31.825
75461,232.447,55.981,31.693
75495,232.329,55.654,31.456
75528,232.435,55.91,31.671
75561,232.601,56.322,31.901
75595,232.598,56.476,31.938
75628,232.573,56.208,31.72
75661,232.512,56.065,31.627
75695,232.658,56.637,32.052
75728,232.711,56.36,31.793
75761,232.492,55.672,31.277
75795,231.83,54.358,30.604
75828,231.361,53.797,30.412
75861,231.407,54.078,30.714
75894,231.683,54.503,31.074
75928,231.881,54.739,31.238
75961,232.04,54.896,31.318
75994,232.188,55.184,31.464
76028,232.182,54.99,31.287
76061,231.941,54.47,30.871
76094,231.882,54.407,30.84
76128,231.979,54.657,31.057
76161,231.841,54.317,30.81
76194,232.067,54.563,31.06
76228,232.05,54.316,30.921
76261,232.276,55.154,31.544
76294,232.491,55.363,31.594
76328,232.562,55.531,31.656
76361,232.657,55.952,31.869
76394,232.634,55.62,31.538
76428,232.625,55.542,31.47
76461,232.626,55.398,31.376
76494,232.643,55.274,31.326
76527,232.455,54.508,30.81
76561,231.99,53.45,30.236
76594,231.562,53.027,30.095
76626,231.538,53.397,30.418
76661,231.688,53.687,30.714
76694,231.963,54.117,31.035
76727,232.171,54.53,31.294
76761,232.421,55.027,31.564
76794,232.557,55.148,31.56
76827,232.365,54.672,31.157
76861,232.238,54.288,30.876
76894,232.047,53.839,30.594
76927,232.151,54.213,30.938
76961,232.247,54.423,31.107
76994,232.327,54.305,31.032
77027,232.328,54.17,30.97
77061,232.536,54.785,31.435
77094,232.708,54.96,31.506
77126,232.77,55.17,31.599
77160,232.834,55.334,31.656
77194,232.954,55.642,31.806
77227,232.94,55.585,31.675
77260,232.981,55.842,31.819
77294,233.043,55.962,31.841
77327,232.831,55.347,31.296
77359,232.212,54.415,30.666
77394,231.705,53.759,30.403
77427,231.644,54.053,30.71
77460,231.897,54.601,31.138
77494,232.08,54.905,31.336
77527,232.205,55.225,31.488
77560,232.363,55.651,31.731
77594,232.349,55.449,31.511
77626,232.178,54.89,31.055
77660,231.968,54.612,30.896
77694,232.01,54.78,31.078
77727,232.018,54.734,31.068
77760,232.048,54.569,31.003
77793,232.074,54.491,31.031
77827,232.27,54.985,31.416
77859,232.393,55.201,31.506
77893,232.432,55.16,31.434
77927,232.592,55.758,31.835
77960,232.723,55.921,31.835
77993,232.649,55.795,31.674
78027,232.686,55.73,31.604
78060,232.69,55.95,31.76
78092,232.754,55.794,31.626
78126,232.677,55.718,31.57
78160,232.541,54.985,31.032
78193,231.741,53.674,30.377
78227,231.255,52.955,30.171
78260,231.239,53.18,30.395
78293,231.49,53.789,30.817
78327,231.858,54.545,31.262
78359,231.853,54.264,31.071
78393,231.959,54.499,31.204
78427,232.001,54.781,31.313
78460,232.134,55.148,31.47
78493,231.949,54.988,31.244
78526,231.885,54.801,31.112
78560,232.102,55.609,31.678
78592,232.282,55.943,31.836
78626,232.425,56.269,31.993
78660,232.585,56.544,32.102
78693,232.573,56.387,31.93
78726,232.639,56.451,31.95
78760,232.796,57.003,32.312
78793,232.793,56.856,32.13
78825,232.921,57.441,32.484
78859,233.03,57.837,32.64
78893,233.171,58.659,33.022
78926,233.147,58.504,32.8
78960,233.134,58.385,32.687
78993,233.166,58.264,32.576
79026,232.721,57.183,31.796
79060,232.062,55.971,31.278
79092,231.647,55.451,31.174
79126,231.83,55.923,31.525
79159,231.996,56.022,31.663
79193,232.145,56.219,31.796
79226,232.241,56.25,31.823
79259,232.31,56.386,31.897
79293,232.314,56.455,31.886
79325,232.224,56.126,31.624
79359,232.026,55.85,31.405
79393,232.064,55.907,31.498
79426,232.131,56.034,31.611
79459,232.268,56.317,31.797
79493,232.308,56.156,31.687
79526,232.364,56.25,31.773
79559,232.614,56.936,32.24
79592,232.61,56.719,32.006
79626,232.65,56.679,31.957
79659,232.628,56.448,31.79
79693,232.725,56.776,32.045
79726,232.738,56.701,31.949
79759,232.777,56.926,32.104
79792,232.903,57.172,32.246
79825,232.867,56.962,32.067
79859,232.892,57.001,32.095
79892,232.729,56.615,31.709
79926,232.015,55.344,30.973
79959,231.511,54.815,30.808
79992,231.533,55.12,31.077
80026,231.668,55.199,31.207
80059,231.877,55.665,31.529
80092,232.022,55.904,31.668
80126,232.157,55.933,31.648
80159,232.159,56.107,31.679
80192,231.951,55.052,30.911
80226,231.69,54.757,30.785
80259,231.676,54.486,30.673
80292,231.825,55.156,31.25
80325,231.908,54.75,30.946
80359,231.884,54.901,31.11
80392,232.228,55.474,31.507
80425,232.047,54.89,31.046
80459,232.187,54.991,31.171
80492,232.15,54.943,31.131
80525,232.279,55.375,31.432
80559,232.322,55.296,31.326
80592,232.32,55.352,31.349
80625,232.454,55.721,31.589
80659,232.519,55.772,31.577
80692,232.517,55.635,31.427
80725,232.232,54.899,30.834
80759,231.69,54.319,30.413
80792,231.4,54.123,30.332
80825,231.378,54.42,30.652
80859,231.517,54.476,30.771
80892,231.78,55.067,31.241
80925,231.971,55.63,31.582
80959,232.308,56.449,31.978
80992,232.229,56.126,31.635
81025,231.976,55.287,31.014
81058,231.826,55.365,31.091
81092,231.945,55.546,31.236
81125,231.806,54.956,30.849
81158,231.723,54.647,30.711
81192,231.895,55.17,31.171
81225,231.997,55.187,31.162
81258,231.993,55.042,31.065
81292,232.157,55.627,31.491
81325,232.282,55.851,31.551
81358,232.192,55.539,31.267
81392,232.327,55.982,31.573
81425,232.428,56.19,31.647
81458,232.272,55.654,31.201
81492,232.389,56.16,31.628
81525,232.483,56.11,31.544
81558,232.166,55.283,30.889
81592,231.502,54.308,30.318
81625,231.074,53.921,30.209
81658,231.188,54.505,30.703
81691,231.392,54.762,30.905
81725,231.478,54.894,30.996
81758,231.679,55.186,31.2
81791,231.734,55.157,31.122
81825,231.714,55.013,30.954
81858,231.61,54.996,30.913
81891,231.634,55.34,31.113
81925,231.619,55.338,31.056
81958,231.576,55.063,30.879
81991,231.625,55.197,31.028
82025,231.861,55.817,31.466
82058,231.948,55.928,31.476
82091,231.991,55.728,31.294
82125,232.015,56.103,31.538
82158,232.148,56.193,31.542
82191,232.198,56.268,31.562
82225,232.142,55.978,31.314
82258,232.147,56.277,31.541
82291,232.212,56.177,31.44
82324,232.077,55.873,31.222
82358,232.221,56.156,31.472
82391,231.922,55.458,30.862
82424,231.336,54.607,30.321
82458,230.865,54.083,30.131
82491,230.95,54.523,30.546
82524,231.256,55.242,31.059
82558,231.566,55.831,31.431
82591,231.67,55.779,31.358
82624,231.73,55.927,31.414
82658,231.656,55.3,30.907
82691,231.289,54.463,30.316
82724,231.395,55.321,31.029
82758,231.472,55.575,31.155
82791,231.777,56.672,31.829
82824,231.919,57.384,32.056
82858,232.076,57.987,32.25
82891,232.1,57.804,32.1
82924,232.079,57.835,32.089
82958,232.091,57.244,31.745
82991,232.061,56.874,31.56
83024,232.233,57.502,32.013
83057,232.198,57.055,31.69
83091,232.149,56.749,31.482
83124,232.189,57.228,31.835
83157,232.456,57.816,32.206
83191,232.098,56.591,31.246
83224,231.583,55.822,30.799
83257,231.305,55.512,30.734
83291,231.476,55.976,31.193
83324,231.625,56.068,31.316
83357,231.935,56.847,31.903
83391,232.29,57.392,32.207
83424,232.245,57.041,31.904
83457,232.107,56.257,31.353
83491,231.982,56.311,31.414
83524,231.956,56.178,31.318
83557,231.972,56.205,31.388
83591,232.012,56.599,31.714
83624,232.211,56.808,31.83
83657,232.319,57.244,32.085
83690,232.343,56.934,31.83
83724,232.479,57.369,32.118
83757,232.598,57.641,32.253
83790,232.665,57.688,32.254
83824,232.702,57.662,32.167
83857,232.729,57.788,32.249
83890,232.866,58.192,32.504
83924,232.811,57.826,32.185
83957,232.826,57.972,32.306
83990,232.641,57.195,31.693
84024,232.071,56.212,31.131
84057,231.648,56.006,31.087
84090,231.663,56.143,31.278
84124,231.8,56.514,31.616
84157,231.972,56.65,31.718
84190,232.103,56.978,31.941
84224,232.305,57.497,32.251
84257,232.198,56.906,31.765
84290,232.132,56.892,31.723
84323,231.974,56.4,31.37
84357,231.948,56.524,31.546
84390,232.049,56.686,31.704
84423,232.019,56.489,31.572
84457,232.167,56.657,31.751
84490,232.244,56.832,31.897
84523,232.318,56.786,31.831
84557,232.276,56.682,31.766
84590,232.482,57.189,32.12
84623,232.449,56.915,31.876
84657,232.505,57.225,32.092
84690,232.581,57.28,32.07
84723,232.551,57.239,32.006
84757,232.548,57.124,31.923
84790,232.566,57.135,31.953
84823,232.699,57.473,32.191
84857,232.344,56.41,31.338
84890,231.706,55.493,30.86
84923,231.335,55.196,30.808
84956,231.297,55.37,31.028
84990,231.505,55.61,31.256
85023,231.573,55.618,31.286
85056,231.852,56.406,31.807
85090,231.938,56.475,31.786
85123,231.832,55.944,31.356
85156,231.752,55.807,31.275
85190,231.694,55.863,31.329
85223,231.638,55.72,31.239
85256,231.73,55.951,31.44
85290,231.757,55.861,31.402
85323,231.803,55.718,31.307
85356,231.93,56.278,31.719
85390,232.063,56.564,31.855
85423,232.127,56.499,31.762
85456,232.109,56.535,31.752
85490,232.201,56.654,31.806
85523,232.181,56.602,31.751
85556,232.135,56.393,31.582
85589,232.094,56.503,31.665
85623,232.226,56.497,31.676
85656,232.105,55.852,31.241
85689,232.023,55.745,31.27
85723,232.214,55.886,31.429
85756,231.764,54.987,30.725
85789,231.198,54.317,30.358
85823,231.103,54.482,30.555
85856,231.298,55.071,31.044
85889,231.442,55.337,31.25
85923,231.632,55.639,31.448
85956,231.762,55.779,31.503
85989,231.831,55.722,31.416
86023,231.712,55.293,31.06
86056,231.502,54.947,30.811
86089,231.668,55.591,31.342
86123,231.718,54.981,30.891
86156,231.241,53.404,29.998
86189,231.244,53.468,30.241
86223,231.731,55.035,31.33
86256,232.164,55.812,31.731
86289,232.167,55.888,31.686
86322,232.46,56.825,32.142
86356,232.7,57.54,32.45
86389,232.807,57.791,32.495
86422,232.886,58.127,32.608
86456,232.93,58.267,32.636
86489,233.0,58.429,32.679
86522,233.057,58.451,32.665
86556,233.014,58.301,32.535
86589,232.692,57.412,31.913
86622,231.966,56.298,31.302
86656,231.681,56.043,31.261
86689,231.766,56.431,31.572
86722,231.895,56.697,31.79
86756,232.139,57.112,32.055
86789,232.25,57.11,32.033
86822,232.247,57.044,31.944
86856,232.222,56.847,31.767
86889,231.944,56.002,31.173
86922,231.766,55.594,30.987
86955,231.785,55.723,31.181
86989,231.79,55.523,31.117
87022,231.937,55.812,31.429
87055,232.052,56.043,31.6
87089,232.165,56.191,31.681
87122,232.315,56.664,31.963
