time,R,G,B
0,237.85,0.0,0.0
36,237.918,0.0,0.0
63,237.779,0.0,0.0
97,237.374,0.0,0.0
145,237.066,0.0,0.0
175,237.031,0.0,0.0
197,237.17,0.0,0.0
244,237.284,0.0,0.0
272,237.358,0.0,0.0
300,237.451,0.0,0.0
340,237.443,0.0,0.0
375,237.355,0.0,0.0
408,237.414,0.0,0.0
432,237.466,0.0,0.0
468,237.524,0.0,0.0
511,237.565,0.0,0.0
532,237.586,0.0,0.0
567,237.627,0.0,0.0
607,237.612,0.0,0.0
640,237.591,0.0,0.0
677,237.589,0.0,0.0
710,237.564,0.0,0.0
735,237.383,0.0,0.0
779,237.032,0.0,0.0
809,236.913,0.0,0.0
838,237.005,0.0,0.0
875,237.134,0.0,0.0
907,237.194,0.0,0.0
936,237.159,0.0,0.0
985,237.121,0.0,0.0
1009,237.1,0.0,0.0
1036,237.037,0.0,0.0
1063,237.071,0.0,0.0
1109,237.146,0.0,0.0
1158,237.134,0.0,0.0
1172,237.179,0.0,0.0
1211,237.255,0.0,0.0
1229,237.33,0.0,0.0
1261,237.349,0.0,0.0
1296,237.396,0.0,0.0
1331,237.324,0.0,0.0
1364,237.256,0.0,0.0
1396,237.123,0.0,0.0
1437,236.779,0.0,0.0
1466,236.679,0.0,0.0
1497,236.664,0.0,0.0
1530,236.75,0.0,0.0
1566,236.794,0.0,0.0
1599,236.937,0.0,0.0
1635,236.981,0.0,0.0
1666,236.981,0.0,0.0
1698,236.952,0.0,0.0
1732,237.024,0.0,0.0
1766,237.129,0.0,0.0
1800,237.226,0.0,0.0
1836,237.244,0.0,0.0
1861,237.296,0.0,0.0
1904,237.344,0.0,0.0
1929,237.433,0.0,0.0
1962,237.48,0.0,0.0
2002,237.524,0.0,0.0
2030,237.567,0.0,0.0
2072,237.423,0.0,0.0
2106,237.119,0.0,0.0
2133,237.017,0.0,0.0
2175,237.034,0.0,0.0
2206,237.174,0.0,0.0
2233,237.293,0.0,0.0
2271,237.424,0.0,0.0
2299,237.46,0.0,0.0
2339,237.43,0.0,0.0
2373,237.333,0.0,0.0
2405,237.361,0.0,0.0
2439,237.372,0.0,0.0
2473,237.347,0.0,0.0
2506,237.364,0.0,0.0
2541,237.434,0.0,0.0
2574,237.511,0.0,0.0
2610,237.591,0.0,0.0
2641,237.544,0.0,0.0
2675,237.573,0.0,0.0
2709,237.648,0.0,0.0
2742,237.736,0.0,0.0
2776,237.83,0.0,0.0
2804,237.69,0.0,0.0
2853,237.48,0.0,0.0
2873,237.414,0.0,0.0
2905,237.503,0.0,0.0
2948,237.657,0.0,0.0
2980,237.75,0.0,0.0
3014,237.778,0.0,0.0
3048,237.771,0.0,0.0
3082,237.808,0.0,0.0
3115,237.926,0.0,0.0
3149,238.04,0.0,0.0
3180,238.117,0.0,0.0
3197,237.988,0.0,0.0
3233,238.032,0.0,0.0
3266,237.535,0.0,0.0
3300,237.535,0.0,0.0
3333,237.576,0.0,0.0
3366,237.647,0.0,0.0
3400,237.659,0.0,0.0
3435,237.706,0.0,0.0
3467,237.748,0.0,0.0
3500,237.843,0.0,0.0
3534,237.77,0.0,0.0
3568,237.564,0.0,0.0
3603,237.317,0.0,0.0
3635,237.291,0.0,0.0
3662,237.381,0.0,0.0
3702,237.455,0.0,0.0
3736,237.919,0.0,0.0
3770,238.043,0.0,0.0
3803,237.968,0.0,0.0
3836,237.898,0.0,0.0
3872,237.81,0.0,0.0
3905,237.924,0.0,0.0
3938,238.045,0.0,0.0
3973,238.108,0.0,0.0
4006,238.181,0.0,0.0
4041,238.279,0.0,0.0
4073,238.338,0.0,0.0
4106,238.291,0.0,0.0
4155,238.393,0.0,0.0
4167,238.012,0.0,0.0
4199,238.104,0.0,0.0
4229,238.147,0.0,0.0
4266,238.134,0.0,0.0
4308,238.17,0.0,0.0
4344,238.22,0.0,0.0
4368,238.283,0.0,0.0
4401,238.196,0.0,0.0
4442,237.939,0.0,0.0
4459,237.767,0.0,0.0
4509,237.708,0.0,0.0
4544,237.715,0.0,0.0
4577,237.748,0.0,0.0
4611,237.845,0.0,0.0
4645,238.303,0.0,0.0
4678,238.271,0.0,0.0
4696,238.205,0.0,0.0
4729,238.169,0.0,0.0
4762,238.231,0.0,0.0
4794,238.299,0.0,0.0
4828,238.396,0.0,0.0
4862,238.514,0.0,0.0
4897,238.586,0.0,0.0
4930,238.557,0.0,0.0
4964,238.158,0.0,0.0
4997,238.241,0.0,0.0
5033,238.313,0.0,0.0
5081,238.379,0.0,0.0
5098,238.458,0.0,0.0
5139,238.503,0.0,0.0
5169,238.626,0.0,0.0
5196,238.672,0.0,0.0
5227,238.748,0.0,0.0
5262,238.645,0.0,0.0
5308,238.341,0.0,0.0
5335,238.13,0.0,0.0
5377,238.068,0.0,0.0
5403,238.145,0.0,0.0
5440,238.233,0.0,0.0
5471,238.291,0.0,0.0
5495,238.321,0.0,0.0
5528,238.237,0.0,0.0
5572,238.221,0.0,0.0
5595,238.199,0.0,0.0
5630,238.225,0.0,0.0
5677,238.273,0.0,0.0
5709,238.337,0.0,0.0
5725,238.398,0.0,0.0
5778,238.47,0.0,0.0
5800,238.571,0.0,0.0
5836,238.665,0.0,0.0
5873,238.742,0.0,0.0
5899,238.79,0.0,0.0
5942,238.86,0.0,0.0
5966,238.911,0.0,0.0
6023,238.944,0.0,0.0
6035,239.02,0.0,0.0
6086,239.09,0.0,0.0
6095,239.258,0.0,0.0
6127,239.087,0.0,0.0
6177,238.797,0.0,0.0
6192,238.678,0.0,0.0
6228,238.723,0.0,0.0
6303,238.796,0.0,0.0
6348,238.801,0.0,0.0
6371,238.85,0.0,0.0
6400,238.792,0.0,0.0
6436,238.768,0.0,0.0
6465,238.774,0.0,0.0
6499,238.848,0.0,0.0
6533,238.911,0.0,0.0
6564,238.971,0.0,0.0
6599,239.034,0.0,0.0
6645,239.115,0.0,0.0
6669,239.212,0.0,0.0
6709,239.42,0.0,0.0
6734,239.487,0.0,0.0
6785,239.573,0.0,0.0
6799,239.641,0.0,0.0
6848,239.722,0.0,0.0
6877,239.774,0.0,0.0
6912,239.832,0.0,0.0
6946,239.591,0.0,0.0
6981,239.283,0.0,0.0
7005,239.101,0.0,0.0
7046,239.102,0.0,0.0
7073,239.198,0.0,0.0
7112,239.268,0.0,0.0
7139,239.308,0.0,0.0
7162,239.372,0.0,0.0
7202,239.343,0.0,0.0
7236,239.289,0.0,0.0
7268,239.31,0.0,0.0
7301,239.355,0.0,0.0
7341,239.407,0.0,0.0
7368,239.484,0.0,0.0
7409,239.548,0.0,0.0
7441,239.625,0.0,0.0
7464,239.717,0.0,0.0
7508,239.795,0.0,0.0
7542,239.881,0.0,0.0
7564,239.948,0.0,0.0
7601,240.059,0.0,0.0
7641,240.009,0.0,0.0
7665,239.847,0.0,0.0
7713,239.536,0.0,0.0
7735,239.232,0.0,0.0
7776,239.158,0.0,0.0
7794,239.159,0.0,0.0
7831,239.247,0.0,0.0
7868,239.427,0.0,0.0
7912,239.583,0.0,0.0
7929,239.653,0.0,0.0
7963,239.645,0.0,0.0
8011,239.643,0.0,0.0
8044,239.729,0.0,0.0
8061,239.79,0.0,0.0
8116,239.883,0.0,0.0
8130,239.99,0.0,0.0
8185,240.096,0.0,0.0
8197,240.168,0.0,0.0
8233,240.223,0.0,0.0
8262,240.232,0.0,0.0
8305,240.204,0.0,0.0
8334,240.206,0.0,0.0
8365,240.259,0.0,0.0
8399,240.231,0.0,0.0
8438,240.048,0.0,0.0
8464,239.682,0.0,0.0
8500,239.362,0.0,0.0
8534,239.285,0.0,0.0
8568,239.345,0.0,0.0
8597,239.421,0.0,0.0
8634,239.484,0.0,0.0
8671,239.395,0.0,0.0
8699,239.377,0.0,0.0
8725,239.356,0.0,0.0
8772,239.485,0.0,0.0
8801,239.516,0.0,0.0
8862,239.587,0.0,0.0
8863,239.643,0.0,0.0
8901,239.689,0.0,0.0
8934,239.775,0.0,0.0
8970,239.83,0.0,0.0
9009,239.818,0.0,0.0
9034,239.875,0.0,0.0
9061,239.899,0.0,0.0
9112,239.942,0.0,0.0
9135,239.944,0.0,0.0
9173,239.8,0.0,0.0
9207,239.489,0.0,0.0
9238,239.224,0.0,0.0
9275,239.152,0.0,0.0
9299,239.179,0.0,0.0
9340,239.235,0.0,0.0
9364,239.224,0.0,0.0
9409,239.258,0.0,0.0
9434,239.235,0.0,0.0
9479,239.208,0.0,0.0
9499,239.212,0.0,0.0
9549,239.269,0.0,0.0
9567,239.279,0.0,0.0
9600,239.359,0.0,0.0
9630,239.415,0.0,0.0
9667,239.503,0.0,0.0
9714,239.547,0.0,0.0
9747,239.678,0.0,0.0
9768,239.732,0.0,0.0
9812,239.762,0.0,0.0
9846,239.8,0.0,0.0
9867,239.866,0.0,0.0
9902,239.798,0.0,0.0
9936,239.538,0.0,0.0
9970,239.292,0.0,0.0
9998,239.193,0.0,0.0
10044,239.283,0.0,0.0
10061,239.363,0.0,0.0
10101,239.32,0.0,0.0
10131,239.396,0.0,0.0
10171,239.336,0.0,0.0
10200,239.284,0.0,0.0
10231,239.255,0.0,0.0
10264,239.419,0.0,0.0
10303,239.495,0.0,0.0
10336,239.378,0.0,0.0
10366,239.451,0.0,0.0
10398,239.638,0.0,0.0
10440,239.69,0.0,0.0
10466,239.689,0.0,0.0
10501,239.675,0.0,0.0
10539,239.703,0.0,0.0
10561,239.748,0.0,0.0
10606,239.795,0.0,0.0
10634,239.817,0.0,0.0
10669,239.692,0.0,0.0
10700,239.439,0.0,0.0
10739,239.202,0.0,0.0
10765,239.11,0.0,0.0
10803,239.032,0.0,0.0
10839,239.075,0.0,0.0
10875,239.012,0.0,0.0
10905,239.064,0.0,0.0
10938,239.014,0.0,0.0
10962,238.875,0.0,0.0
11008,238.785,0.0,0.0
11030,238.781,0.0,0.0
11074,238.785,0.0,0.0
11098,238.788,0.0,0.0
11130,238.839,0.0,0.0
11179,238.89,0.0,0.0
11197,238.901,0.0,0.0
11242,238.922,0.0,0.0
11275,238.913,0.0,0.0
11293,238.973,0.0,0.0
11346,239.025,0.0,0.0
11379,239.092,0.0,0.0
11402,239.116,0.0,0.0
11424,239.018,0.0,0.0
11474,238.908,0.0,0.0
11492,238.605,0.0,0.0
11544,238.506,0.0,0.0
11576,238.398,0.0,0.0
11614,238.481,0.0,0.0
11627,238.645,0.0,0.0
11663,238.745,0.0,0.0
11716,238.727,0.0,0.0
11745,238.708,0.0,0.0
11761,238.682,0.0,0.0
11798,238.786,0.0,0.0
11829,238.846,0.0,0.0
11864,238.938,0.0,0.0
11921,238.99,0.0,0.0
11950,239.115,0.0,0.0
11992,239.164,0.0,0.0
12021,239.255,0.0,0.0
12056,239.267,0.0,0.0
12102,239.307,0.0,0.0
12110,239.339,0.0,0.0
12141,239.468,0.0,0.0
12186,239.459,0.0,0.0
12239,239.332,0.0,0.0
12252,239.044,0.0,0.0
12277,238.745,0.0,0.0
12303,238.637,0.0,0.0
12336,238.513,0.0,0.0
12366,238.578,0.0,0.0
12403,238.633,0.0,0.0
12435,238.705,0.0,0.0
12491,238.627,0.0,0.0
12504,238.522,0.0,0.0
12526,238.53,0.0,0.0
12571,238.539,0.0,0.0
12600,238.621,0.0,0.0
12637,238.661,0.0,0.0
12674,238.759,0.0,0.0
12705,238.841,0.0,0.0
12736,238.893,0.0,0.0
12776,238.902,0.0,0.0
12798,238.977,0.0,0.0
12858,239.049,0.0,0.0
12861,239.089,0.0,0.0
12897,239.16,0.0,0.0
12941,239.232,0.0,0.0
12964,239.22,0.0,0.0
13001,238.874,0.0,0.0
13032,238.554,0.0,0.0
13075,238.338,0.0,0.0
13100,238.322,0.0,0.0
13125,238.449,0.0,0.0
13179,238.57,0.0,0.0
13195,238.683,0.0,0.0
13246,239.188,0.0,0.0
13292,238.727,0.0,0.0
13342,238.748,0.0,0.0
13361,238.827,0.0,0.0
13401,238.913,0.0,0.0
13434,239.008,0.0,0.0
13459,239.1,0.0,0.0
13495,239.161,0.0,0.0
13529,239.192,0.0,0.0
13579,239.309,0.0,0.0
13615,239.355,0.0,0.0
13636,239.376,0.0,0.0
13674,239.385,0.0,0.0
13703,239.444,0.0,0.0
13737,239.521,0.0,0.0
13769,239.573,0.0,0.0
13802,239.406,0.0,0.0
13831,239.146,0.0,0.0
13865,238.803,0.0,0.0
13918,238.744,0.0,0.0
13926,238.612,0.0,0.0
13965,238.668,0.0,0.0
13999,238.809,0.0,0.0
14050,238.918,0.0,0.0
14066,238.897,0.0,0.0
14098,238.858,0.0,0.0
14132,238.877,0.0,0.0
14169,238.942,0.0,0.0
14201,239.0,0.0,0.0
14236,239.096,0.0,0.0
14259,239.169,0.0,0.0
14307,239.242,0.0,0.0
14329,239.329,0.0,0.0
14369,239.376,0.0,0.0
14397,239.403,0.0,0.0
14438,239.473,0.0,0.0
14463,239.506,0.0,0.0
14494,239.584,0.0,0.0
14532,239.793,0.0,0.0
14574,239.871,0.0,0.0
14600,239.863,0.0,0.0
14641,239.645,0.0,0.0
14674,239.29,0.0,0.0
14696,238.974,0.0,0.0
14727,238.942,0.0,0.0
14764,239.034,0.0,0.0
14801,239.024,0.0,0.0
14840,239.19,0.0,0.0
14862,239.272,0.0,0.0
14904,239.229,0.0,0.0
14931,239.168,0.0,0.0
14967,239.185,0.0,0.0
15008,239.252,0.0,0.0
15025,239.302,0.0,0.0
15078,239.384,0.0,0.0
15093,239.442,0.0,0.0
15145,239.477,0.0,0.0
15171,239.629,0.0,0.0
15194,239.688,0.0,0.0
15234,239.689,0.0,0.0
15262,239.697,0.0,0.0
15297,239.757,0.0,0.0
15329,239.801,0.0,0.0
15365,239.852,0.0,0.0
15399,239.907,0.0,0.0
15436,239.803,0.0,0.0
15466,239.496,0.0,0.0
15500,239.183,0.0,0.0
15549,239.12,0.0,0.0
15565,239.133,0.0,0.0
15597,239.19,0.0,0.0
15631,239.31,0.0,0.0
15669,239.237,0.0,0.0
15715,239.203,0.0,0.0
15733,239.128,0.0,0.0
15756,239.233,0.0,0.0
15801,239.23,0.0,0.0
15836,239.308,0.0,0.0
15867,239.298,0.0,0.0
15900,239.354,0.0,0.0
15936,239.384,0.0,0.0
15968,239.498,0.0,0.0
16001,239.605,0.0,0.0
16037,239.69,0.0,0.0
16070,239.745,0.0,0.0
16093,239.795,0.0,0.0
16137,239.837,0.0,0.0
16173,239.911,0.0,0.0
16209,239.927,0.0,0.0
16229,239.75,0.0,0.0
16273,239.584,0.0,0.0
16305,239.523,0.0,0.0
16341,239.61,0.0,0.0
16361,239.67,0.0,0.0
16391,239.778,0.0,0.0
16442,239.861,0.0,0.0
16473,239.934,0.0,0.0
16508,239.928,0.0,0.0
16540,239.893,0.0,0.0
16576,239.889,0.0,0.0
16598,239.944,0.0,0.0
16644,239.989,0.0,0.0
16669,240.072,0.0,0.0
16691,240.135,0.0,0.0
16742,240.181,0.0,0.0
16775,240.268,0.0,0.0
16798,240.343,0.0,0.0
16833,240.394,0.0,0.0
16876,240.431,0.0,0.0
16915,240.437,0.0,0.0
16943,240.421,0.0,0.0
16958,240.266,0.0,0.0
16996,240.058,0.0,0.0
17030,239.939,0.0,0.0
17069,239.975,0.0,0.0
17100,240.047,0.0,0.0
17127,240.153,0.0,0.0
17161,240.242,0.0,0.0
17199,240.286,0.0,0.0
17233,240.207,0.0,0.0
17262,240.148,0.0,0.0
17294,240.14,0.0,0.0
17349,240.184,0.0,0.0
17365,240.224,0.0,0.0
17408,240.204,0.0,0.0
17427,240.283,0.0,0.0
17463,240.342,0.0,0.0
17501,240.44,0.0,0.0
17533,240.473,0.0,0.0
17564,240.472,0.0,0.0
17599,240.538,0.0,0.0
17636,240.575,0.0,0.0
17674,240.51,0.0,0.0
17706,240.224,0.0,0.0
17733,240.067,0.0,0.0
17772,239.987,0.0,0.0
17794,240.016,0.0,0.0
17838,240.102,0.0,0.0
17867,240.154,0.0,0.0
17891,240.209,0.0,0.0
17962,240.146,0.0,0.0
17968,240.082,0.0,0.0
18024,240.076,0.0,0.0
18030,240.097,0.0,0.0
18095,240.141,0.0,0.0
18114,240.182,0.0,0.0
18141,240.218,0.0,0.0
18174,240.181,0.0,0.0
18209,240.173,0.0,0.0
18236,240.166,0.0,0.0
18266,240.103,0.0,0.0
18304,239.949,0.0,0.0
18322,239.825,0.0,0.0
18374,239.908,0.0,0.0
18391,239.768,0.0,0.0
18432,239.532,0.0,0.0
18465,239.362,0.0,0.0
18509,239.345,0.0,0.0
18532,239.414,0.0,0.0
18560,239.473,0.0,0.0
18598,239.478,0.0,0.0
18632,239.434,0.0,0.0
18667,239.312,0.0,0.0
18695,239.254,0.0,0.0
18727,239.195,0.0,0.0
18762,239.208,0.0,0.0
18796,239.312,0.0,0.0
18828,239.482,0.0,0.0
18861,239.577,0.0,0.0
18895,239.567,0.0,0.0
18931,239.453,0.0,0.0
18963,239.381,0.0,0.0
18996,239.415,0.0,0.0
19029,239.44,0.0,0.0
19063,239.46,0.0,0.0
19098,239.292,0.0,0.0
19130,239.015,0.0,0.0
19167,238.911,0.0,0.0
19195,238.858,0.0,0.0
19223,238.931,0.0,0.0
19266,239.012,0.0,0.0
19296,238.869,0.0,0.0
19322,238.844,0.0,0.0
19362,238.835,0.0,0.0
19402,238.845,0.0,0.0
19435,238.825,0.0,0.0
19469,238.78,0.0,0.0
19490,238.799,0.0,0.0
19529,238.86,0.0,0.0
19569,238.95,0.0,0.0
19594,238.976,0.0,0.0
19637,238.941,0.0,0.0
19658,238.95,0.0,0.0
19693,238.975,0.0,0.0
19737,239.006,0.0,0.0
19761,238.961,0.0,0.0
19804,238.984,0.0,0.0
19839,238.659,0.0,0.0
19860,238.385,0.0,0.0
19894,238.291,0.0,0.0
19941,238.114,0.0,0.0
19964,238.151,0.0,0.0
20006,238.201,0.0,0.0
20043,238.167,0.0,0.0
20062,238.041,0.0,0.0
20092,237.959,0.0,0.0
20129,237.873,0.0,0.0
20164,237.902,0.0,0.0
20196,237.899,0.0,0.0
20231,237.883,0.0,0.0
20277,237.902,0.0,0.0
20311,238.358,0.0,0.0
20343,237.919,0.0,0.0
20360,237.941,0.0,0.0
20391,238.003,0.0,0.0
20425,238.051,0.0,0.0
20459,238.11,0.0,0.0
20493,238.169,0.0,0.0
20525,238.037,0.0,0.0
20561,237.764,0.0,0.0
20600,237.596,0.0,0.0
20627,237.492,0.0,0.0
20664,237.505,0.0,0.0
20696,237.96,0.0,0.0
20728,238.128,0.0,0.0
20761,238.156,0.0,0.0
20796,238.11,0.0,0.0
20845,238.022,0.0,0.0
20864,238.057,0.0,0.0
20895,238.125,0.0,0.0
20937,238.183,0.0,0.0
20986,238.253,0.0,0.0
21002,238.401,0.0,0.0
21038,238.583,0.0,0.0
21070,238.625,0.0,0.0
21097,238.49,0.0,0.0
21123,238.046,0.0,0.0
21167,238.206,0.0,0.0
21201,238.264,0.0,0.0
21227,237.985,0.0,0.0
21266,237.647,0.0,0.0
21308,237.413,0.0,0.0
21339,237.402,0.0,0.0
21362,237.419,0.0,0.0
21411,237.856,0.0,0.0
21433,237.83,0.0,0.0
21469,237.823,0.0,0.0
21500,237.803,0.0,0.0
21526,237.796,0.0,0.0
21556,237.716,0.0,0.0
21593,237.714,0.0,0.0
21645,237.772,0.0,0.0
21665,237.847,0.0,0.0
21705,237.961,0.0,0.0
21728,238.113,0.0,0.0
21774,238.252,0.0,0.0
21808,238.398,0.0,0.0
21841,238.501,0.0,0.0
21871,238.592,0.0,0.0
21896,238.576,0.0,0.0
21939,238.124,0.0,0.0
21973,237.44,0.0,0.0
21989,237.155,0.0,0.0
22025,237.632,0.0,0.0
22062,237.821,0.0,0.0
22098,237.994,0.0,0.0
22126,238.107,0.0,0.0
22162,238.164,0.0,0.0
22204,238.135,0.0,0.0
22226,238.136,0.0,0.0
22258,238.139,0.0,0.0
22296,238.254,0.0,0.0
22330,238.347,0.0,0.0
22359,238.495,0.0,0.0
22398,238.62,0.0,0.0
22432,238.715,0.0,0.0
22465,238.815,0.0,0.0
22498,238.927,0.0,0.0
22532,238.419,0.0,0.0
22567,238.526,0.0,0.0
22596,238.57,0.0,0.0
22630,238.416,0.0,0.0
22663,238.108,0.0,0.0
22692,237.978,0.0,0.0
22730,237.98,0.0,0.0
22770,238.073,0.0,0.0
22826,238.568,0.0,0.0
22833,238.881,0.0,0.0
22861,238.986,0.0,0.0
22896,239.059,0.0,0.0
22932,239.021,0.0,0.0
22965,238.453,0.0,0.0
22996,238.573,0.0,0.0
23058,238.662,0.0,0.0
23091,238.699,0.0,0.0
23099,238.812,0.0,0.0
23154,238.775,0.0,0.0
23169,238.706,0.0,0.0
23195,238.734,0.0,0.0
23255,238.788,0.0,0.0
23293,238.869,0.0,0.0
23320,238.909,0.0,0.0
23325,238.898,0.0,0.0
23360,238.658,0.0,0.0
23387,238.242,0.0,0.0
23435,237.909,0.0,0.0
23451,237.844,0.0,0.0
23487,237.886,0.0,0.0
23528,237.938,0.0,0.0
23573,238.547,0.0,0.0
23604,238.717,0.0,0.0
23627,238.582,0.0,0.0
23655,238.488,0.0,0.0
23697,238.575,0.0,0.0
23724,238.739,0.0,0.0
23754,238.843,0.0,0.0
23794,238.944,0.0,0.0
23830,238.987,0.0,0.0
23861,238.505,0.0,0.0
23893,238.471,0.0,0.0
23925,238.481,0.0,0.0
23981,238.573,0.0,0.0
23996,238.682,0.0,0.0
24026,238.782,0.0,0.0
24065,238.84,0.0,0.0
24099,238.8,0.0,0.0
24129,238.471,0.0,0.0
24167,238.056,0.0,0.0
24200,237.736,0.0,0.0
24230,237.745,0.0,0.0
24252,237.848,0.0,0.0
24305,238.328,0.0,0.0
24323,238.577,0.0,0.0
24364,238.595,0.0,0.0
24394,238.531,0.0,0.0
24436,238.472,0.0,0.0
24464,238.416,0.0,0.0
24500,238.504,0.0,0.0
24534,238.617,0.0,0.0
24562,238.789,0.0,0.0
24604,238.899,0.0,0.0
24634,238.938,0.0,0.0
24666,238.525,0.0,0.0
24690,238.623,0.0,0.0
24734,238.669,0.0,0.0
24758,238.74,0.0,0.0
24803,238.78,0.0,0.0
24824,238.842,0.0,0.0
24868,238.876,0.0,0.0
24900,238.571,0.0,0.0
24936,238.251,0.0,0.0
24970,238.105,0.0,0.0
24993,238.14,0.0,0.0
25036,238.268,0.0,0.0
25062,238.405,0.0,0.0
25106,238.514,0.0,0.0
25139,238.572,0.0,0.0
25168,238.552,0.0,0.0
25202,238.551,0.0,0.0
25224,238.583,0.0,0.0
25254,238.641,0.0,0.0
25289,238.7,0.0,0.0
25327,238.798,0.0,0.0
25355,238.901,0.0,0.0
25395,239.009,0.0,0.0
25428,239.06,0.0,0.0
25462,239.132,0.0,0.0
25511,239.197,0.0,0.0
25529,239.385,0.0,0.0
25561,239.451,0.0,0.0
25593,239.501,0.0,0.0
25627,239.455,0.0,0.0
25658,239.188,0.0,0.0
25694,238.958,0.0,0.0
25727,238.873,0.0,0.0
25759,238.883,0.0,0.0
25794,238.975,0.0,0.0
25829,239.046,0.0,0.0
25860,239.058,0.0,0.0
25893,239.099,0.0,0.0
25930,239.167,0.0,0.0
25958,239.158,0.0,0.0
25997,239.171,0.0,0.0
26021,239.232,0.0,0.0
26055,239.305,0.0,0.0
26101,239.366,0.0,0.0
26127,239.393,0.0,0.0
26162,239.433,0.0,0.0
26197,239.45,0.0,0.0
26231,239.504,0.0,0.0
26265,239.516,0.0,0.0
26289,239.564,0.0,0.0
26332,239.554,0.0,0.0
26356,239.538,0.0,0.0
26402,239.38,0.0,0.0
26426,239.038,0.0,0.0
26464,238.874,0.0,0.0
26501,238.773,0.0,0.0
26532,238.77,0.0,0.0
26570,238.848,0.0,0.0
26589,238.978,0.0,0.0
26638,238.999,0.0,0.0
26660,238.874,0.0,0.0
26699,238.784,0.0,0.0
26724,238.671,0.0,0.0
26770,238.561,0.0,0.0
26801,238.624,0.0,0.0
26825,238.675,0.0,0.0
26868,238.713,0.0,0.0
26891,238.772,0.0,0.0
26940,238.842,0.0,0.0
26963,238.852,0.0,0.0
26994,238.923,0.0,0.0
27047,238.96,0.0,0.0
27065,238.965,0.0,0.0
27101,238.819,0.0,0.0
27133,238.526,0.0,0.0
27169,238.44,0.0,0.0
27201,238.409,0.0,0.0
27236,238.475,0.0,0.0
27265,238.637,0.0,0.0
27308,238.804,0.0,0.0
27345,238.887,0.0,0.0
27363,238.849,0.0,0.0
27391,238.827,0.0,0.0
27440,238.833,0.0,0.0
27455,238.886,0.0,0.0
27490,238.957,0.0,0.0
27528,239.004,0.0,0.0
27558,239.122,0.0,0.0
27610,239.231,0.0,0.0
27625,239.35,0.0,0.0
27664,239.46,0.0,0.0
27701,239.532,0.0,0.0
27733,239.538,0.0,0.0
27787,239.351,0.0,0.0
27808,239.036,0.0,0.0
27827,238.942,0.0,0.0
27862,238.963,0.0,0.0
27897,239.067,0.0,0.0
27919,239.156,0.0,0.0
27962,239.246,0.0,0.0
27995,239.298,0.0,0.0
28030,239.211,0.0,0.0
28065,239.165,0.0,0.0
28116,239.192,0.0,0.0
28132,239.244,0.0,0.0
28155,239.298,0.0,0.0
28199,239.364,0.0,0.0
28225,239.414,0.0,0.0
28263,239.485,0.0,0.0
28302,239.58,0.0,0.0
28323,239.565,0.0,0.0
28367,239.562,0.0,0.0
28397,239.397,0.0,0.0
28431,239.081,0.0,0.0
28468,238.88,0.0,0.0
28502,238.816,0.0,0.0
28537,238.976,0.0,0.0
28557,239.056,0.0,0.0
28593,239.177,0.0,0.0
28637,239.253,0.0,0.0
28659,239.308,0.0,0.0
28691,239.288,0.0,0.0
28727,239.278,0.0,0.0
28762,239.245,0.0,0.0
28805,239.208,0.0,0.0
28826,239.261,0.0,0.0
28860,239.295,0.0,0.0
28905,239.338,0.0,0.0
28931,239.31,0.0,0.0
28961,239.287,0.0,0.0
29008,239.28,0.0,0.0
29038,239.106,0.0,0.0
29076,238.737,0.0,0.0
29092,238.419,0.0,0.0
29127,238.31,0.0,0.0
29177,238.271,0.0,0.0
29193,238.162,0.0,0.0
29225,238.232,0.0,0.0
29259,238.255,0.0,0.0
29293,238.151,0.0,0.0
29328,238.078,0.0,0.0
29357,238.034,0.0,0.0
29391,238.019,0.0,0.0
29441,238.011,0.0,0.0
29457,238.025,0.0,0.0
29495,238.051,0.0,0.0
29528,238.118,0.0,0.0
29559,238.157,0.0,0.0
29594,238.198,0.0,0.0
29630,238.187,0.0,0.0
29682,238.157,0.0,0.0
29693,237.924,0.0,0.0
29718,237.611,0.0,0.0
29757,237.405,0.0,0.0
29798,237.374,0.0,0.0
29834,237.421,0.0,0.0
29861,237.921,0.0,0.0
29899,238.046,0.0,0.0
29931,238.021,0.0,0.0
29953,237.997,0.0,0.0
29996,237.931,0.0,0.0
30035,237.953,0.0,0.0
30064,237.993,0.0,0.0
30098,238.061,0.0,0.0
30134,238.135,0.0,0.0
30177,238.207,0.0,0.0
30184,238.279,0.0,0.0
30222,238.265,0.0,0.0
30270,238.293,0.0,0.0
30301,238.319,0.0,0.0
30342,238.409,0.0,0.0
30357,238.437,0.0,0.0
30403,238.195,0.0,0.0
30441,237.975,0.0,0.0
30468,237.394,0.0,0.0
30504,237.838,0.0,0.0
30536,237.95,0.0,0.0
30569,238.063,0.0,0.0
30592,238.159,0.0,0.0
30626,238.288,0.0,0.0
30669,238.255,0.0,0.0
30685,238.131,0.0,0.0
30728,238.047,0.0,0.0
30778,238.109,0.0,0.0
30794,238.156,0.0,0.0
30821,238.147,0.0,0.0
30855,238.13,0.0,0.0
30890,238.134,0.0,0.0
30941,238.141,0.0,0.0
30975,238.177,0.0,0.0
31008,238.228,0.0,0.0
31022,238.256,0.0,0.0
31058,238.294,0.0,0.0
31094,238.306,0.0,0.0
31127,238.149,0.0,0.0
31155,237.844,0.0,0.0
31196,237.282,0.0,0.0
31226,237.539,0.0,0.0
31259,237.67,0.0,0.0
31312,237.741,0.0,0.0
31329,237.859,0.0,0.0
31361,237.926,0.0,0.0
31394,237.809,0.0,0.0
31425,237.738,0.0,0.0
31459,237.721,0.0,0.0
31499,237.755,0.0,0.0
31520,237.83,0.0,0.0
31552,237.865,0.0,0.0
31598,237.857,0.0,0.0
31646,237.894,0.0,0.0
31662,237.879,0.0,0.0
31700,237.854,0.0,0.0
31721,237.8,0.0,0.0
31763,237.775,0.0,0.0
31797,237.756,0.0,0.0
31834,237.739,0.0,0.0
31861,237.713,0.0,0.0
31902,237.586,0.0,0.0
31936,237.279,0.0,0.0
31965,236.974,0.0,0.0
32002,236.844,0.0,0.0
32036,236.818,0.0,0.0
32068,236.842,0.0,0.0
32093,236.923,0.0,0.0
32127,237.011,0.0,0.0
32162,236.901,0.0,0.0
32196,236.844,0.0,0.0
32231,236.855,0.0,0.0
32265,236.862,0.0,0.0
32294,236.859,0.0,0.0
32343,236.939,0.0,0.0
32369,236.995,0.0,0.0
32405,237.07,0.0,0.0
32425,237.122,0.0,0.0
32471,237.177,0.0,0.0
32502,237.233,0.0,0.0
32527,237.299,0.0,0.0
32572,237.342,0.0,0.0
32586,237.341,0.0,0.0
32636,237.375,0.0,0.0
32661,237.331,0.0,0.0
32688,237.068,0.0,0.0
32723,236.866,0.0,0.0
32757,236.859,0.0,0.0
32796,236.963,0.0,0.0
32826,237.136,0.0,0.0
32864,237.286,0.0,0.0
32891,237.37,0.0,0.0
32925,237.331,0.0,0.0
32961,237.337,0.0,0.0
32992,237.369,0.0,0.0
33020,237.453,0.0,0.0
33084,237.591,0.0,0.0
33089,237.716,0.0,0.0
33123,237.83,0.0,0.0
33159,237.931,0.0,0.0
33193,238.004,0.0,0.0
33245,238.051,0.0,0.0
33262,238.087,0.0,0.0
33296,238.057,0.0,0.0
33327,237.619,0.0,0.0
33359,237.592,0.0,0.0
33398,237.318,0.0,0.0
33430,236.993,0.0,0.0
33453,236.804,0.0,0.0
33498,236.845,0.0,0.0
33521,237.358,0.0,0.0
33567,237.494,0.0,0.0
33599,237.584,0.0,0.0
33633,237.635,0.0,0.0
33653,237.529,0.0,0.0
33689,237.478,0.0,0.0
33732,237.572,0.0,0.0
33759,237.646,0.0,0.0
33800,237.716,0.0,0.0
33839,237.784,0.0,0.0
33866,237.872,0.0,0.0
33898,237.944,0.0,0.0
33937,238.013,0.0,0.0
33953,238.053,0.0,0.0
33990,238.089,0.0,0.0
34037,238.138,0.0,0.0
34053,238.02,0.0,0.0
34092,237.521,0.0,0.0
34122,237.138,0.0,0.0
34172,236.792,0.0,0.0
34204,236.715,0.0,0.0
34226,237.233,0.0,0.0
34270,237.371,0.0,0.0
34293,237.458,0.0,0.0
34338,237.547,0.0,0.0
34355,237.531,0.0,0.0
34407,237.497,0.0,0.0
34427,237.46,0.0,0.0
34456,237.454,0.0,0.0
34499,237.545,0.0,0.0
34529,237.648,0.0,0.0
34557,237.771,0.0,0.0
34592,237.76,0.0,0.0
34629,237.741,0.0,0.0
34659,237.758,0.0,0.0
34691,237.818,0.0,0.0
34727,237.946,0.0,0.0
34757,238.061,0.0,0.0
34793,238.04,0.0,0.0
34828,237.807,0.0,0.0
34859,237.454,0.0,0.0
34893,236.885,0.0,0.0
34922,237.239,0.0,0.0
34959,237.357,0.0,0.0
34995,237.454,0.0,0.0
35021,237.63,0.0,0.0
35062,237.693,0.0,0.0
35100,237.682,0.0,0.0
35127,237.615,0.0,0.0
35169,237.644,0.0,0.0
35199,237.717,0.0,0.0
35221,237.816,0.0,0.0
35262,237.892,0.0,0.0
35306,237.98,0.0,0.0
35331,238.079,0.0,0.0
35361,238.214,0.0,0.0
35386,238.252,0.0,0.0
35428,238.215,0.0,0.0
35453,237.797,0.0,0.0
35495,237.806,0.0,0.0
35524,237.655,0.0,0.0
35567,237.36,0.0,0.0
35605,237.133,0.0,0.0
35633,237.037,0.0,0.0
35668,237.08,0.0,0.0
35688,237.626,0.0,0.0
35720,237.912,0.0,0.0
35756,238.016,0.0,0.0
35802,238.003,0.0,0.0
35844,237.891,0.0,0.0
35852,237.898,0.0,0.0
35901,237.928,0.0,0.0
35919,238.013,0.0,0.0
35971,238.046,0.0,0.0
36000,238.157,0.0,0.0
36039,238.214,0.0,0.0
36059,238.165,0.0,0.0
36089,237.705,0.0,0.0
36118,237.744,0.0,0.0
36160,237.808,0.0,0.0
36193,237.807,0.0,0.0
36224,237.794,0.0,0.0
36256,237.622,0.0,0.0
36292,237.268,0.0,0.0
36320,236.976,0.0,0.0
36357,236.899,0.0,0.0
36396,237.008,0.0,0.0
36427,237.559,0.0,0.0
36448,237.703,0.0,0.0
36493,237.707,0.0,0.0
36528,237.647,0.0,0.0
36556,237.584,0.0,0.0
36593,237.545,0.0,0.0
36635,237.61,0.0,0.0
36657,237.695,0.0,0.0
36690,237.74,0.0,0.0
36727,237.871,0.0,0.0
36758,237.95,0.0,0.0
36794,238.039,0.0,0.0
36829,238.08,0.0,0.0
36867,238.091,0.0,0.0
36899,238.077,0.0,0.0
36923,237.664,0.0,0.0
36953,237.58,0.0,0.0
37001,237.271,0.0,0.0
37021,237.011,0.0,0.0
37065,236.927,0.0,0.0
37086,237.036,0.0,0.0
37133,237.616,0.0,0.0
37154,237.854,0.0,0.0
37203,237.946,0.0,0.0
37219,237.864,0.0,0.0
37252,237.829,0.0,0.0
37301,237.864,0.0,0.0
37325,237.943,0.0,0.0
37364,237.998,0.0,0.0
37395,238.085,0.0,0.0
37438,238.191,0.0,0.0
37467,238.17,0.0,0.0
37501,237.77,0.0,0.0
37522,237.853,0.0,0.0
37566,237.849,0.0,0.0
37593,237.896,0.0,0.0
37634,237.722,0.0,0.0
37669,237.404,0.0,0.0
37690,237.142,0.0,0.0
37740,237.079,0.0,0.0
37757,237.175,0.0,0.0
37791,237.651,0.0,0.0
37821,238.008,0.0,0.0
37855,238.071,0.0,0.0
37888,238.01,0.0,0.0
37927,237.91,0.0,0.0
37971,237.948,0.0,0.0
37994,237.938,0.0,0.0
38021,238.047,0.0,0.0
38055,238.141,0.0,0.0
38104,238.239,0.0,0.0
38132,238.303,0.0,0.0
38172,237.872,0.0,0.0
38199,237.954,0.0,0.0
38233,237.969,0.0,0.0
38266,237.88,0.0,0.0
38304,237.687,0.0,0.0
38334,237.32,0.0,0.0
38382,236.991,0.0,0.0
38402,236.908,0.0,0.0
38428,236.962,0.0,0.0
38448,237.509,0.0,0.0
38511,237.737,0.0,0.0
38530,237.764,0.0,0.0
38566,237.682,0.0,0.0
38593,237.602,0.0,0.0
38632,237.637,0.0,0.0
38661,237.676,0.0,0.0
38683,237.728,0.0,0.0
38726,237.833,0.0,0.0
38752,237.89,0.0,0.0
38800,237.899,0.0,0.0
38821,237.974,0.0,0.0
38867,237.989,0.0,0.0
38891,238.02,0.0,0.0
38919,238.016,0.0,0.0
38965,237.875,0.0,0.0
38997,237.468,0.0,0.0
39032,237.134,0.0,0.0
39053,237.057,0.0,0.0
39085,237.166,0.0,0.0
39120,237.292,0.0,0.0
39164,237.365,0.0,0.0
39200,237.407,0.0,0.0
39221,237.354,0.0,0.0
39252,237.272,0.0,0.0
39303,237.306,0.0,0.0
39339,237.379,0.0,0.0
39369,237.425,0.0,0.0
39402,237.473,0.0,0.0
39423,237.549,0.0,0.0
39468,237.608,0.0,0.0
39502,237.672,0.0,0.0
39534,237.711,0.0,0.0
39557,237.775,0.0,0.0
39603,237.837,0.0,0.0
39625,237.811,0.0,0.0
39655,237.669,0.0,0.0
39692,237.334,0.0,0.0
39722,237.092,0.0,0.0
39761,237.029,0.0,0.0
39789,237.089,0.0,0.0
39822,237.182,0.0,0.0
39857,237.235,0.0,0.0
39894,237.239,0.0,0.0
39925,237.184,0.0,0.0
39961,237.16,0.0,0.0
39988,237.137,0.0,0.0
40023,237.187,0.0,0.0
40058,237.269,0.0,0.0
40092,237.328,0.0,0.0
40125,237.384,0.0,0.0
40159,237.42,0.0,0.0
40182,237.386,0.0,0.0
40242,237.374,0.0,0.0
40258,237.306,0.0,0.0
40292,237.318,0.0,0.0
40315,237.384,0.0,0.0
40352,237.334,0.0,0.0
40397,237.211,0.0,0.0
40417,236.865,0.0,0.0
40450,236.606,0.0,0.0
40493,236.573,0.0,0.0
40552,236.652,0.0,0.0
40563,236.71,0.0,0.0
40597,236.816,0.0,0.0
40627,236.893,0.0,0.0
40651,236.801,0.0,0.0
40697,236.77,0.0,0.0
40730,236.817,0.0,0.0
40763,236.855,0.0,0.0
40805,236.929,0.0,0.0
40826,237.002,0.0,0.0
40865,237.053,0.0,0.0
40917,237.048,0.0,0.0
40932,237.079,0.0,0.0
40954,237.102,0.0,0.0
41002,237.149,0.0,0.0
41032,237.203,0.0,0.0
41054,237.19,0.0,0.0
41089,237.227,0.0,0.0
41122,237.115,0.0,0.0
41164,236.793,0.0,0.0
41198,236.463,0.0,0.0
41218,236.395,0.0,0.0
41268,236.444,0.0,0.0
41300,236.52,0.0,0.0
41337,236.67,0.0,0.0
41358,236.619,0.0,0.0
41384,236.534,0.0,0.0
41427,236.494,0.0,0.0
41452,236.52,0.0,0.0
41492,236.561,0.0,0.0
41521,236.616,0.0,0.0
41558,236.683,0.0,0.0
41587,236.763,0.0,0.0
41625,236.832,0.0,0.0
41655,236.85,0.0,0.0
41687,236.905,0.0,0.0
41720,236.958,0.0,0.0
41757,236.986,0.0,0.0
41788,237.036,0.0,0.0
41825,237.101,0.0,0.0
41860,237.158,0.0,0.0
41897,236.97,0.0,0.0
41927,236.62,0.0,0.0
41964,236.357,0.0,0.0
41991,236.296,0.0,0.0
42025,236.366,0.0,0.0
42055,236.477,0.0,0.0
42089,236.586,0.0,0.0
42124,236.654,0.0,0.0
42155,236.564,0.0,0.0
42195,236.508,0.0,0.0
42216,236.521,0.0,0.0
42262,236.572,0.0,0.0
42299,236.663,0.0,0.0
42328,236.722,0.0,0.0
42358,236.784,0.0,0.0
42384,236.833,0.0,0.0
42417,236.899,0.0,0.0
42462,236.973,0.0,0.0
42495,237.056,0.0,0.0
42519,237.035,0.0,0.0
42562,237.076,0.0,0.0
42595,237.154,0.0,0.0
42635,237.222,0.0,0.0
42652,237.008,0.0,0.0
42688,236.63,0.0,0.0
42717,236.371,0.0,0.0
42752,236.296,0.0,0.0
42787,236.37,0.0,0.0
42833,236.445,0.0,0.0
42869,236.517,0.0,0.0
42885,236.605,0.0,0.0
42914,236.514,0.0,0.0
42966,236.493,0.0,0.0
43001,236.506,0.0,0.0
43025,236.561,0.0,0.0
43071,236.623,0.0,0.0
43089,236.699,0.0,0.0
43144,236.784,0.0,0.0
43174,236.823,0.0,0.0
43207,236.891,0.0,0.0
43241,236.935,0.0,0.0
43269,236.983,0.0,0.0
43304,237.045,0.0,0.0
43342,237.1,0.0,0.0
43363,237.202,0.0,0.0
43396,237.305,0.0,0.0
43437,237.121,0.0,0.0
43449,236.775,0.0,0.0
43488,236.412,0.0,0.0
43522,236.234,0.0,0.0
43556,236.218,0.0,0.0
43589,236.291,0.0,0.0
43619,236.367,0.0,0.0
43657,236.42,0.0,0.0
43687,236.394,0.0,0.0
43720,236.308,0.0,0.0
43757,236.281,0.0,0.0
43797,236.278,0.0,0.0
43818,236.37,0.0,0.0
43858,236.492,0.0,0.0
43886,236.595,0.0,0.0
43924,236.676,0.0,0.0
43948,236.794,0.0,0.0
43994,236.885,0.0,0.0
44016,236.947,0.0,0.0
44052,236.971,0.0,0.0
44095,237.052,0.0,0.0
44120,237.096,0.0,0.0
44160,237.204,0.0,0.0
44196,237.263,0.0,0.0
44242,237.009,0.0,0.0
44248,236.598,0.0,0.0
44285,236.22,0.0,0.0
44331,236.145,0.0,0.0
44351,236.242,0.0,0.0
44401,236.361,0.0,0.0
44424,236.472,0.0,0.0
44462,236.536,0.0,0.0
44500,236.508,0.0,0.0
44519,236.5,0.0,0.0
44553,236.487,0.0,0.0
44599,236.554,0.0,0.0
44630,236.621,0.0,0.0
44664,236.754,0.0,0.0
44698,236.873,0.0,0.0
44732,236.96,0.0,0.0
44766,237.017,0.0,0.0
44800,237.085,0.0,0.0
44834,237.09,0.0,0.0
44871,237.169,0.0,0.0
44894,237.246,0.0,0.0
44926,237.311,0.0,0.0
44957,237.309,0.0,0.0
44988,237.214,0.0,0.0
45016,236.863,0.0,0.0
45070,236.448,0.0,0.0
45084,236.201,0.0,0.0
45117,236.212,0.0,0.0
45155,236.328,0.0,0.0
45187,236.496,0.0,0.0
45226,236.579,0.0,0.0
45257,236.49,0.0,0.0
45288,236.377,0.0,0.0
45327,236.227,0.0,0.0
45358,236.143,0.0,0.0
45388,236.172,0.0,0.0
45413,236.258,0.0,0.0
45456,236.336,0.0,0.0
45491,236.443,0.0,0.0
45528,236.464,0.0,0.0
45549,236.495,0.0,0.0
45581,236.406,0.0,0.0
45625,236.352,0.0,0.0
45655,236.38,0.0,0.0
45680,236.375,0.0,0.0
45724,236.366,0.0,0.0
45761,236.211,0.0,0.0
45797,235.791,0.0,0.0
45825,235.367,0.0,0.0
45863,235.193,0.0,0.0
45891,235.239,0.0,0.0
45915,235.402,0.0,0.0
45963,235.722,0.0,0.0
45986,235.817,0.0,0.0
46014,235.8,0.0,0.0
46051,235.688,0.0,0.0
46089,235.648,0.0,0.0
46119,235.769,0.0,0.0
46159,235.864,0.0,0.0
46199,235.996,0.0,0.0
46218,236.102,0.0,0.0
46250,236.172,0.0,0.0
46285,236.247,0.0,0.0
46314,236.298,0.0,0.0
46350,236.419,0.0,0.0
46387,236.472,0.0,0.0
46432,236.43,0.0,0.0
46463,236.318,0.0,0.0
46484,235.974,0.0,0.0
46521,235.592,0.0,0.0
46567,235.266,0.0,0.0
46591,235.205,0.0,0.0
46620,235.318,0.0,0.0
46658,235.486,0.0,0.0
46687,235.621,0.0,0.0
46722,235.534,0.0,0.0
46752,235.302,0.0,0.0
46799,235.137,0.0,0.0
46823,234.97,0.0,0.0
46855,234.893,0.0,0.0
46891,234.969,0.0,0.0
46922,235.042,0.0,0.0
46956,235.12,0.0,0.0
46986,235.187,0.0,0.0
47018,235.269,0.0,0.0
47051,235.326,0.0,0.0
47087,235.265,0.0,0.0
47126,235.244,0.0,0.0
47160,234.883,0.0,0.0
47189,234.539,0.0,0.0
47221,234.043,0.0,0.0
47255,234.02,0.0,0.0
47288,233.961,0.0,0.0
47325,234.148,0.0,0.0
47357,234.308,0.0,0.0
47390,234.244,0.0,0.0
47429,234.097,0.0,0.0
47463,233.953,0.0,0.0
47494,234.045,0.0,0.0
47528,234.102,0.0,0.0
47561,234.172,0.0,0.0
47591,234.292,0.0,0.0
47624,234.401,0.0,0.0
47651,234.433,0.0,0.0
47686,234.37,0.0,0.0
47722,234.396,0.0,0.0
47762,234.492,0.0,0.0
47789,234.576,0.0,0.0
47827,234.245,0.0,0.0
47853,233.822,0.0,0.0
47895,233.629,0.0,0.0
47917,233.761,0.0,0.0
47962,233.959,0.0,0.0
47998,234.371,0.0,0.0
48019,234.724,0.0,0.0
48065,235.03,0.0,0.0
48085,235.135,0.0,0.0
48133,235.276,0.0,0.0
48150,235.358,0.0,0.0
48201,235.484,0.0,0.0
48221,235.659,0.0,0.0
48254,235.856,0.0,0.0
48298,235.998,0.0,0.0
48320,236.109,0.0,0.0
48352,236.43,0.0,0.0
48388,236.554,0.0,0.0
48431,236.687,0.0,0.0
48465,236.79,0.0,0.0
48481,236.507,0.0,0.0
48535,236.156,0.0,0.0
48556,235.618,0.0,0.0
48603,235.415,0.0,0.0
48623,235.449,0.0,0.0
48660,235.511,0.0,0.0
48700,235.543,0.0,0.0
48716,235.636,0.0,0.0
48751,235.73,0.0,0.0
48786,235.819,0.0,0.0
48826,235.948,0.0,0.0
48854,236.2,0.0,0.0
48886,236.455,0.0,0.0
48917,236.802,0.0,0.0
48951,237.042,0.0,0.0
48987,237.223,0.0,0.0
49019,237.425,0.0,0.0
49058,237.662,0.0,0.0
49081,237.751,0.0,0.0
49131,237.846,0.0,0.0
49164,237.92,0.0,0.0
49208,237.678,0.0,0.0
49247,237.305,0.0,0.0
49278,236.978,0.0,0.0
49287,236.881,0.0,0.0
49316,236.966,0.0,0.0
49351,237.029,0.0,0.0
49394,237.233,0.0,0.0
49442,237.29,0.0,0.0
49466,237.255,0.0,0.0
49495,237.244,0.0,0.0
49519,237.243,0.0,0.0
49559,237.329,0.0,0.0
49599,237.448,0.0,0.0
49623,237.6,0.0,0.0
49659,237.681,0.0,0.0
49684,237.76,0.0,0.0
49729,237.791,0.0,0.0
49751,237.762,0.0,0.0
49779,237.723,0.0,0.0
49819,237.708,0.0,0.0
49862,237.794,0.0,0.0
49901,237.825,0.0,0.0
49918,237.764,0.0,0.0
49950,237.405,0.0,0.0
49986,237.038,0.0,0.0
50029,236.789,0.0,0.0
50052,236.748,0.0,0.0
50086,236.846,0.0,0.0
50135,236.918,0.0,0.0
50155,236.992,0.0,0.0
50196,236.993,0.0,0.0
50232,236.926,0.0,0.0
50254,236.925,0.0,0.0
50302,236.974,0.0,0.0
50326,237.035,0.0,0.0
50351,237.11,0.0,0.0
50400,237.208,0.0,0.0
50431,237.292,0.0,0.0
50447,237.356,0.0,0.0
50485,237.422,0.0,0.0
50521,237.485,0.0,0.0
50555,237.428,0.0,0.0
50586,237.416,0.0,0.0
50620,237.466,0.0,0.0
50654,237.525,0.0,0.0
50684,237.553,0.0,0.0
50718,237.462,0.0,0.0
50752,237.121,0.0,0.0
50782,236.75,0.0,0.0
50816,236.487,0.0,0.0
50859,236.401,0.0,0.0
50884,236.443,0.0,0.0
50918,236.564,0.0,0.0
50961,236.715,0.0,0.0
50988,236.715,0.0,0.0
51022,236.593,0.0,0.0
51056,236.544,0.0,0.0
51090,236.474,0.0,0.0
51122,236.514,0.0,0.0
51169,236.588,0.0,0.0
51184,236.645,0.0,0.0
51222,236.737,0.0,0.0
51259,236.824,0.0,0.0
51280,236.795,0.0,0.0
51327,236.803,0.0,0.0
51356,236.822,0.0,0.0
51381,236.815,0.0,0.0
51423,236.861,0.0,0.0
51461,236.911,0.0,0.0
51486,236.945,0.0,0.0
51525,236.904,0.0,0.0
51561,236.585,0.0,0.0
51583,236.263,0.0,0.0
51626,236.016,0.0,0.0
51655,236.028,0.0,0.0
51696,236.151,0.0,0.0
51725,236.308,0.0,0.0
51750,236.447,0.0,0.0
51790,236.512,0.0,0.0
51832,236.482,0.0,0.0
51863,236.493,0.0,0.0
51895,236.492,0.0,0.0
51932,236.583,0.0,0.0
51952,236.673,0.0,0.0
51987,236.801,0.0,0.0
52018,236.899,0.0,0.0
52053,236.992,0.0,0.0
52087,237.053,0.0,0.0
52118,237.048,0.0,0.0
52148,237.121,0.0,0.0
52186,237.105,0.0,0.0
52221,237.082,0.0,0.0
52252,237.068,0.0,0.0
52289,236.934,0.0,0.0
52321,236.612,0.0,0.0
52352,236.251,0.0,0.0
52382,236.175,0.0,0.0
52416,236.21,0.0,0.0
52449,236.352,0.0,0.0
52487,236.549,0.0,0.0
52516,236.642,0.0,0.0
52552,236.578,0.0,0.0
52584,236.512,0.0,0.0
52617,236.503,0.0,0.0
52654,236.516,0.0,0.0
52688,236.566,0.0,0.0
52711,236.646,0.0,0.0
52757,236.809,0.0,0.0
52786,236.968,0.0,0.0
52819,237.086,0.0,0.0
52859,237.152,0.0,0.0
52882,237.236,0.0,0.0
52911,237.287,0.0,0.0
52954,237.372,0.0,0.0
52992,237.335,0.0,0.0
53012,237.07,0.0,0.0
53059,236.696,0.0,0.0
53092,236.397,0.0,0.0
53123,236.333,0.0,0.0
53148,236.469,0.0,0.0
53192,236.682,0.0,0.0
53214,236.882,0.0,0.0
53261,236.956,0.0,0.0
53284,236.844,0.0,0.0
53329,236.778,0.0,0.0
53353,236.815,0.0,0.0
53387,236.882,0.0,0.0
53432,236.959,0.0,0.0
53460,237.061,0.0,0.0
53495,237.201,0.0,0.0
53516,237.304,0.0,0.0
53563,237.414,0.0,0.0
53595,237.44,0.0,0.0
53629,237.512,0.0,0.0
53665,237.591,0.0,0.0
53697,237.585,0.0,0.0
53720,237.331,0.0,0.0
53763,236.963,0.0,0.0
53791,236.637,0.0,0.0
53814,236.576,0.0,0.0
53864,236.696,0.0,0.0
53885,236.817,0.0,0.0
53919,236.971,0.0,0.0
53946,237.09,0.0,0.0
53980,237.1,0.0,0.0
54015,237.075,0.0,0.0
54049,237.131,0.0,0.0
54080,237.191,0.0,0.0
54119,237.312,0.0,0.0
54168,237.428,0.0,0.0
54189,237.52,0.0,0.0
54234,237.609,0.0,0.0
54250,237.681,0.0,0.0
54290,237.67,0.0,0.0
54321,237.668,0.0,0.0
54359,237.751,0.0,0.0
54385,237.743,0.0,0.0
54416,237.481,0.0,0.0
54450,237.076,0.0,0.0
54485,236.765,0.0,0.0
54520,236.717,0.0,0.0
54554,236.802,0.0,0.0
54589,236.877,0.0,0.0
54620,236.973,0.0,0.0
54652,237.046,0.0,0.0
54682,236.933,0.0,0.0
54724,236.844,0.0,0.0
54755,236.843,0.0,0.0
54782,236.919,0.0,0.0
54824,236.994,0.0,0.0
54856,237.055,0.0,0.0
54879,237.119,0.0,0.0
54930,237.223,0.0,0.0
54949,237.275,0.0,0.0
54995,237.269,0.0,0.0
55024,237.328,0.0,0.0
55053,237.402,0.0,0.0
55093,237.42,0.0,0.0
55126,237.329,0.0,0.0
55161,236.998,0.0,0.0
55193,236.68,0.0,0.0
55223,236.637,0.0,0.0
55252,236.658,0.0,0.0
55287,236.745,0.0,0.0
55321,236.86,0.0,0.0
55354,236.96,0.0,0.0
55390,236.938,0.0,0.0
55445,236.869,0.0,0.0
55455,236.875,0.0,0.0
55488,236.943,0.0,0.0
55522,237.001,0.0,0.0
55550,237.12,0.0,0.0
55586,237.181,0.0,0.0
55631,237.28,0.0,0.0
55645,237.307,0.0,0.0
55678,237.271,0.0,0.0
55719,237.252,0.0,0.0
55752,237.296,0.0,0.0
55787,237.336,0.0,0.0
55819,237.385,0.0,0.0
55851,237.334,0.0,0.0
55882,237.105,0.0,0.0
55917,236.763,0.0,0.0
55949,236.625,0.0,0.0
55987,236.634,0.0,0.0
56033,236.732,0.0,0.0
56050,236.848,0.0,0.0
56081,236.928,0.0,0.0
56122,236.904,0.0,0.0
56149,236.802,0.0,0.0
56184,236.723,0.0,0.0
56237,236.67,0.0,0.0
56251,236.673,0.0,0.0
56285,236.756,0.0,0.0
56319,236.795,0.0,0.0
56353,236.767,0.0,0.0
56389,236.794,0.0,0.0
56414,236.803,0.0,0.0
56454,236.819,0.0,0.0
56490,236.845,0.0,0.0
56511,236.867,0.0,0.0
56557,236.856,0.0,0.0
56590,236.88,0.0,0.0
56614,236.717,0.0,0.0
56655,236.385,0.0,0.0
56690,236.171,0.0,0.0
56726,236.087,0.0,0.0
56760,236.174,0.0,0.0
56780,236.26,0.0,0.0
56813,236.365,0.0,0.0
56865,236.44,0.0,0.0
56885,236.342,0.0,0.0
56927,236.314,0.0,0.0
56956,236.343,0.0,0.0
56995,236.406,0.0,0.0
57024,236.502,0.0,0.0
57059,236.554,0.0,0.0
57079,236.64,0.0,0.0
57125,236.644,0.0,0.0
57147,236.699,0.0,0.0
57184,236.755,0.0,0.0
57214,236.778,0.0,0.0
57252,236.789,0.0,0.0
57299,236.818,0.0,0.0
57317,236.825,0.0,0.0
57351,236.65,0.0,0.0
57383,236.318,0.0,0.0
57418,236.204,0.0,0.0
57452,236.123,0.0,0.0
57484,236.256,0.0,0.0
57514,236.398,0.0,0.0
57548,236.514,0.0,0.0
57582,236.515,0.0,0.0
57619,236.449,0.0,0.0
57648,236.419,0.0,0.0
57688,236.437,0.0,0.0
57718,236.513,0.0,0.0
57749,236.566,0.0,0.0
57779,236.663,0.0,0.0
57822,236.79,0.0,0.0
57852,236.857,0.0,0.0
57882,236.945,0.0,0.0
57916,237.004,0.0,0.0
57951,236.995,0.0,0.0
57984,237.069,0.0,0.0
58016,237.039,0.0,0.0
58051,236.805,0.0,0.0
58085,236.479,0.0,0.0
58109,236.256,0.0,0.0
58144,236.206,0.0,0.0
58187,236.293,0.0,0.0
58212,236.432,0.0,0.0
58269,236.536,0.0,0.0
58282,236.498,0.0,0.0
58319,236.416,0.0,0.0
58354,236.4,0.0,0.0
58381,236.381,0.0,0.0
58411,236.471,0.0,0.0
58459,236.547,0.0,0.0
58485,236.619,0.0,0.0
58522,236.679,0.0,0.0
58550,236.792,0.0,0.0
58592,236.873,0.0,0.0
58613,236.9,0.0,0.0
58657,236.924,0.0,0.0
58680,236.98,0.0,0.0
58723,237.0,0.0,0.0
58760,236.793,0.0,0.0
58791,236.388,0.0,0.0
58841,236.032,0.0,0.0
58847,235.953,0.0,0.0
58891,235.972,0.0,0.0
58927,236.077,0.0,0.0
58959,236.166,0.0,0.0
58996,236.262,0.0,0.0
59020,236.224,0.0,0.0
59059,236.113,0.0,0.0
59096,236.104,0.0,0.0
59118,236.172,0.0,0.0
59148,236.237,0.0,0.0
59185,236.319,0.0,0.0
59250,236.406,0.0,0.0
59266,236.506,0.0,0.0
59299,236.584,0.0,0.0
59323,236.599,0.0,0.0
59357,236.602,0.0,0.0
59391,236.679,0.0,0.0
59424,236.716,0.0,0.0
59461,236.683,0.0,0.0
59495,236.429,0.0,0.0
59524,236.04,0.0,0.0
59567,235.728,0.0,0.0
59605,235.782,0.0,0.0
59617,235.913,0.0,0.0
59647,236.046,0.0,0.0
59686,236.146,0.0,0.0
59720,236.131,0.0,0.0
59757,236.066,0.0,0.0
59786,236.014,0.0,0.0
59818,236.016,0.0,0.0
59845,236.088,0.0,0.0
59886,236.151,0.0,0.0
59938,236.245,0.0,0.0
59952,236.3,0.0,0.0
59982,236.38,0.0,0.0
60021,236.378,0.0,0.0
60043,236.472,0.0,0.0
60077,236.509,0.0,0.0
60120,236.567,0.0,0.0
60143,236.564,0.0,0.0
60182,236.429,0.0,0.0
60232,236.084,0.0,0.0
60258,235.769,0.0,0.0
60294,235.676,0.0,0.0
60322,235.695,0.0,0.0
60355,235.78,0.0,0.0
60393,235.931,0.0,0.0
60415,236.011,0.0,0.0
60466,235.957,0.0,0.0
60480,235.848,0.0,0.0
60524,235.866,0.0,0.0
60558,235.932,0.0,0.0
60577,235.986,0.0,0.0
60612,236.07,0.0,0.0
60654,236.144,0.0,0.0
60678,236.188,0.0,0.0
60712,236.219,0.0,0.0
60749,236.18,0.0,0.0
60780,236.289,0.0,0.0
60817,236.323,0.0,0.0
60865,236.3,0.0,0.0
60883,236.266,0.0,0.0
60918,236.0,0.0,0.0
60961,235.595,0.0,0.0
60977,235.244,0.0,0.0
61015,235.142,0.0,0.0
61052,235.183,0.0,0.0
61098,235.33,0.0,0.0
61116,235.431,0.0,0.0
61147,235.246,0.0,0.0
61183,235.269,0.0,0.0
61213,235.159,0.0,0.0
61248,235.149,0.0,0.0
61302,235.243,0.0,0.0
61313,235.319,0.0,0.0
61343,235.363,0.0,0.0
61381,235.426,0.0,0.0
61421,235.448,0.0,0.0
61451,235.495,0.0,0.0
61482,235.488,0.0,0.0
61511,235.539,0.0,0.0
61549,235.511,0.0,0.0
61582,235.542,0.0,0.0
61616,235.498,0.0,0.0
61653,235.255,0.0,0.0
61689,234.894,0.0,0.0
61721,234.587,0.0,0.0
61751,234.602,0.0,0.0
61786,234.784,0.0,0.0
61820,234.903,0.0,0.0
61857,234.978,0.0,0.0
61877,234.93,0.0,0.0
61921,234.845,0.0,0.0
61957,234.842,0.0,0.0
61979,235.021,0.0,0.0
62022,234.924,0.0,0.0
62044,235.049,0.0,0.0
62087,235.157,0.0,0.0
62122,235.28,0.0,0.0
62160,235.501,0.0,0.0
62178,235.554,0.0,0.0
62208,235.589,0.0,0.0
62259,235.632,0.0,0.0
62282,235.662,0.0,0.0
62326,235.576,0.0,0.0
62347,235.232,0.0,0.0
62393,234.922,0.0,0.0
62431,234.849,0.0,0.0
62459,234.932,0.0,0.0
62494,235.094,0.0,0.0
62526,235.165,0.0,0.0
62559,235.211,0.0,0.0
62577,235.2,0.0,0.0
62627,235.121,0.0,0.0
62655,235.242,0.0,0.0
62680,235.346,0.0,0.0
62721,235.415,0.0,0.0
62751,235.501,0.0,0.0
62806,235.643,0.0,0.0
62823,235.696,0.0,0.0
62848,235.807,0.0,0.0
62879,235.84,0.0,0.0
62916,235.893,0.0,0.0
62952,235.883,0.0,0.0
62982,235.843,0.0,0.0
63016,235.483,0.0,0.0
63050,235.107,0.0,0.0
63078,234.864,0.0,0.0
63120,234.849,0.0,0.0
63147,234.978,0.0,0.0
63177,235.022,0.0,0.0
63213,235.11,0.0,0.0
63250,235.11,0.0,0.0
63288,235.049,0.0,0.0
63314,234.959,0.0,0.0
63340,234.926,0.0,0.0
63385,234.943,0.0,0.0
63408,235.083,0.0,0.0
63452,235.272,0.0,0.0
63478,235.407,0.0,0.0
63523,235.522,0.0,0.0
63558,235.595,0.0,0.0
63589,235.819,0.0,0.0
63609,235.879,0.0,0.0
63655,235.999,0.0,0.0
63687,235.858,0.0,0.0
63709,235.464,0.0,0.0
63757,235.109,0.0,0.0
63780,234.926,0.0,0.0
63823,234.884,0.0,0.0
63863,234.984,0.0,0.0
63907,235.043,0.0,0.0
63910,235.106,0.0,0.0
63944,235.083,0.0,0.0
63980,235.014,0.0,0.0
64009,235.024,0.0,0.0
64044,235.096,0.0,0.0
64091,235.178,0.0,0.0
64122,235.248,0.0,0.0
64146,235.309,0.0,0.0
64177,235.418,0.0,0.0
64214,235.496,0.0,0.0
64264,235.714,0.0,0.0
64280,235.789,0.0,0.0
64330,235.824,0.0,0.0
64352,235.796,0.0,0.0
64389,235.637,0.0,0.0
64419,235.249,0.0,0.0
64453,234.876,0.0,0.0
64489,234.78,0.0,0.0
64524,234.814,0.0,0.0
64554,234.775,0.0,0.0
64597,234.903,0.0,0.0
64631,234.934,0.0,0.0
64647,234.839,0.0,0.0
64680,234.743,0.0,0.0
64717,234.794,0.0,0.0
64765,234.872,0.0,0.0
64789,234.951,0.0,0.0
64812,235.024,0.0,0.0
64848,235.079,0.0,0.0
64882,235.198,0.0,0.0
64917,235.275,0.0,0.0
64947,235.316,0.0,0.0
64983,235.376,0.0,0.0
65020,235.532,0.0,0.0
65048,235.499,0.0,0.0
65090,235.249,0.0,0.0
65116,234.879,0.0,0.0
65147,234.627,0.0,0.0
65182,234.518,0.0,0.0
65220,234.464,0.0,0.0
65241,234.624,0.0,0.0
65283,234.759,0.0,0.0
65319,234.798,0.0,0.0
65341,234.655,0.0,0.0
65383,234.563,0.0,0.0
65409,234.539,0.0,0.0
65442,234.63,0.0,0.0
65488,234.706,0.0,0.0
65508,234.771,0.0,0.0
65542,234.833,0.0,0.0
65588,234.866,0.0,0.0
65619,234.859,0.0,0.0
65643,234.885,0.0,0.0
65689,234.937,0.0,0.0
65723,234.95,0.0,0.0
65752,234.945,0.0,0.0
65779,234.839,0.0,0.0
65822,234.715,0.0,0.0
65850,234.355,0.0,0.0
65891,234.201,0.0,0.0
65922,234.083,0.0,0.0
65946,234.152,0.0,0.0
65981,234.373,0.0,0.0
66007,234.444,0.0,0.0
66047,234.366,0.0,0.0
66078,234.282,0.0,0.0
66114,234.221,0.0,0.0
66160,234.318,0.0,0.0
66195,234.404,0.0,0.0
66217,234.515,0.0,0.0
66259,234.614,0.0,0.0
66294,234.797,0.0,0.0
66316,234.945,0.0,0.0
66345,235.094,0.0,0.0
66383,235.219,0.0,0.0
66419,235.232,0.0,0.0
66461,235.306,0.0,0.0
66494,235.215,0.0,0.0
66523,234.874,0.0,0.0
66544,234.562,0.0,0.0
66579,234.47,0.0,0.0
66621,234.456,0.0,0.0
66648,234.461,0.0,0.0
66678,234.571,0.0,0.0
66715,234.603,0.0,0.0
66749,234.508,0.0,0.0
66787,234.485,0.0,0.0
66815,234.543,0.0,0.0
66848,234.602,0.0,0.0
66876,234.688,0.0,0.0
66916,234.822,0.0,0.0
66944,234.937,0.0,0.0
66983,235.053,0.0,0.0
67011,235.139,0.0,0.0
67050,235.194,0.0,0.0
67082,235.452,0.0,0.0
67119,235.48,0.0,0.0
67140,235.394,0.0,0.0
67184,235.063,0.0,0.0
67219,234.748,0.0,0.0
67252,234.618,0.0,0.0
67280,234.628,0.0,0.0
67326,234.728,0.0,0.0
67355,234.705,0.0,0.0
67390,234.762,0.0,0.0
67416,234.684,0.0,0.0
67442,234.579,0.0,0.0
67473,234.582,0.0,0.0
67521,234.673,0.0,0.0
67558,234.712,0.0,0.0
67579,234.839,0.0,0.0
67611,234.998,0.0,0.0
67660,235.109,0.0,0.0
67678,235.215,0.0,0.0
67725,235.281,0.0,0.0
67760,235.589,0.0,0.0
67779,235.641,0.0,0.0
67824,235.775,0.0,0.0
67846,235.594,0.0,0.0
67891,235.274,0.0,0.0
67925,234.923,0.0,0.0
67954,234.833,0.0,0.0
67974,234.829,0.0,0.0
68010,234.935,0.0,0.0
68049,234.95,0.0,0.0
68078,235.023,0.0,0.0
68115,235.067,0.0,0.0
68165,235.052,0.0,0.0
68182,235.057,0.0,0.0
68211,235.119,0.0,0.0
68246,235.195,0.0,0.0
68280,235.259,0.0,0.0
68310,235.377,0.0,0.0
68347,235.498,0.0,0.0
68376,235.782,0.0,0.0
68418,235.837,0.0,0.0
68446,235.874,0.0,0.0
68478,235.941,0.0,0.0
68510,236.039,0.0,0.0
68548,235.97,0.0,0.0
68577,235.705,0.0,0.0
68614,235.396,0.0,0.0
68647,235.246,0.0,0.0
68672,235.199,0.0,0.0
68738,235.3,0.0,0.0
68746,235.387,0.0,0.0
68790,235.47,0.0,0.0
68816,235.545,0.0,0.0
68840,235.528,0.0,0.0
68873,235.514,0.0,0.0
68916,235.574,0.0,0.0
68954,235.657,0.0,0.0
68987,235.745,0.0,0.0
69009,235.796,0.0,0.0
69053,235.945,0.0,0.0
69074,235.984,0.0,0.0
69118,236.001,0.0,0.0
69155,236.078,0.0,0.0
69175,236.156,0.0,0.0
69221,236.22,0.0,0.0
69252,236.286,0.0,0.0
69276,236.225,0.0,0.0
69324,235.977,0.0,0.0
69359,235.746,0.0,0.0
69381,235.644,0.0,0.0
69431,235.744,0.0,0.0
69457,235.83,0.0,0.0
69490,235.922,0.0,0.0
69524,236.031,0.0,0.0
69558,236.07,0.0,0.0
69597,236.001,0.0,0.0
69620,236.012,0.0,0.0
69649,236.052,0.0,0.0
69677,236.119,0.0,0.0
69712,236.147,0.0,0.0
69748,236.208,0.0,0.0
69778,236.277,0.0,0.0
69814,236.36,0.0,0.0
69856,236.415,0.0,0.0
69897,236.427,0.0,0.0
69913,236.452,0.0,0.0
69951,236.519,0.0,0.0
69979,236.576,0.0,0.0
70016,236.508,0.0,0.0
70048,236.244,0.0,0.0
70086,236.001,0.0,0.0
70110,235.917,0.0,0.0
70144,235.96,0.0,0.0
70181,236.043,0.0,0.0
70212,236.117,0.0,0.0
70244,236.211,0.0,0.0
70279,236.171,0.0,0.0
70311,236.057,0.0,0.0
70348,236.003,0.0,0.0
70379,236.025,0.0,0.0
70419,236.08,0.0,0.0
70445,236.1,0.0,0.0
70481,236.123,0.0,0.0
70513,236.199,0.0,0.0
70548,236.248,0.0,0.0
70579,236.231,0.0,0.0
70617,236.283,0.0,0.0
70651,236.347,0.0,0.0
70684,236.364,0.0,0.0
70707,236.337,0.0,0.0
70755,236.199,0.0,0.0
70778,235.86,0.0,0.0
70807,235.643,0.0,0.0
70842,235.566,0.0,0.0
70885,235.628,0.0,0.0
70912,235.733,0.0,0.0
70945,235.853,0.0,0.0
70981,235.917,0.0,0.0
71020,235.757,0.0,0.0
71041,235.574,0.0,0.0
71084,235.53,0.0,0.0
71120,235.612,0.0,0.0
71150,235.666,0.0,0.0
71176,235.742,0.0,0.0
71207,235.804,0.0,0.0
71237,235.923,0.0,0.0
71273,235.941,0.0,0.0
71309,235.918,0.0,0.0
71360,236.025,0.0,0.0
71379,236.101,0.0,0.0
71411,236.088,0.0,0.0
71439,235.928,0.0,0.0
71490,235.588,0.0,0.0
71521,235.42,0.0,0.0
71547,235.368,0.0,0.0
71592,235.459,0.0,0.0
71613,235.546,0.0,0.0
71658,235.691,0.0,0.0
71675,235.791,0.0,0.0
71727,235.798,0.0,0.0
71747,235.72,0.0,0.0
71779,235.709,0.0,0.0
71809,235.778,0.0,0.0
71845,235.861,0.0,0.0
71875,235.972,0.0,0.0
71910,236.084,0.0,0.0
71945,236.17,0.0,0.0
71976,236.242,0.0,0.0
72008,236.323,0.0,0.0
72044,236.321,0.0,0.0
72078,236.367,0.0,0.0
72114,236.181,0.0,0.0
72144,235.811,0.0,0.0
72177,235.554,0.0,0.0
72214,235.478,0.0,0.0
72247,235.594,0.0,0.0
72271,235.706,0.0,0.0
72326,235.847,0.0,0.0
72343,235.911,0.0,0.0
72377,235.805,0.0,0.0
72411,235.773,0.0,0.0
72449,235.726,0.0,0.0
72492,235.796,0.0,0.0
72509,235.875,0.0,0.0
72554,235.944,0.0,0.0
72584,236.023,0.0,0.0
72622,236.087,0.0,0.0
72653,236.181,0.0,0.0
72683,236.287,0.0,0.0
72712,236.339,0.0,0.0
72742,236.227,0.0,0.0
72775,235.93,0.0,0.0
72805,235.553,0.0,0.0
72840,235.332,0.0,0.0
72874,235.348,0.0,0.0
72923,235.425,0.0,0.0
72957,235.619,0.0,0.0
72986,235.785,0.0,0.0
73004,235.869,0.0,0.0
73054,235.794,0.0,0.0
73076,235.712,0.0,0.0
73110,235.694,0.0,0.0
73140,235.777,0.0,0.0
73179,235.872,0.0,0.0
73222,236.098,0.0,0.0
73239,236.291,0.0,0.0
73278,236.395,0.0,0.0
73313,236.508,0.0,0.0
73358,236.591,0.0,0.0
73390,236.698,0.0,0.0
73412,236.654,0.0,0.0
73442,236.286,0.0,0.0
73475,235.93,0.0,0.0
73513,235.823,0.0,0.0
73548,235.926,0.0,0.0
73577,236.035,0.0,0.0
73614,236.141,0.0,0.0
73661,236.236,0.0,0.0
73693,236.217,0.0,0.0
73706,236.131,0.0,0.0
73761,236.077,0.0,0.0
73777,236.174,0.0,0.0
73807,236.182,0.0,0.0
73842,236.258,0.0,0.0
73877,236.336,0.0,0.0
73916,236.447,0.0,0.0
73957,236.53,0.0,0.0
73984,236.589,0.0,0.0
