time,R,G,B
0,248.156,0.0,0.488
15,247.89,0.0,0.477
56,247.852,0.0,0.488
83,247.877,0.0,0.47
124,247.892,0.0,0.469
158,247.814,0.0,0.474
184,247.923,0.0,0.477
221,248.025,0.0,0.501
266,248.076,0.0,0.495
289,248.003,0.0,0.487
323,247.981,0.0,0.479
355,247.633,0.0,0.461
384,246.924,0.0,0.421
422,246.456,0.0,0.411
462,246.341,0.0,0.405
485,246.444,0.0,0.409
537,246.539,0.0,0.42
554,246.828,0.0,0.437
585,246.965,0.0,0.458
617,247.03,0.0,0.451
655,246.98,0.0,0.451
692,246.676,0.0,0.428
716,246.515,0.0,0.408
754,246.507,0.0,0.421
789,246.649,0.0,0.428
821,246.842,0.0,0.438
855,247.086,0.0,0.46
882,247.307,0.0,0.444
927,247.38,0.0,0.458
955,247.38,0.0,0.456
988,247.461,0.0,0.453
1021,247.614,0.0,0.438
1055,247.228,0.0,0.419
1082,246.404,0.0,0.393
1118,246.211,0.0,0.397
1154,246.503,0.0,0.411
1181,246.709,0.0,0.414
1217,246.969,0.0,0.447
1257,247.21,0.0,0.458
1288,247.298,0.0,0.459
1321,247.135,0.0,0.458
1354,246.978,0.0,0.437
1385,246.741,0.0,0.425
1418,246.391,0.0,0.405
1483,246.278,0.0,0.401
1497,246.395,0.0,0.419
1514,246.316,0.0,0.422
1553,246.171,0.0,0.406
1590,246.138,0.0,0.405
1639,246.002,0.0,0.384
1657,246.141,0.0,0.393
1677,246.198,0.0,0.405
1716,245.944,0.0,0.37
1758,245.408,0.0,0.339
1779,244.7,0.0,0.315
1818,244.417,0.0,0.316
1863,244.429,0.0,0.31
1881,244.478,0.0,0.318
1921,244.606,0.0,0.326
1960,244.947,0.0,0.344
1994,244.987,0.0,0.347
2030,244.69,0.0,0.321
2061,244.604,0.0,0.328
2102,244.466,0.0,0.324
2133,244.51,0.0,0.326
2168,244.805,0.0,0.335
2195,245.054,0.0,0.348
2230,245.251,0.0,0.369
2265,245.506,0.0,0.381
2293,246.005,0.0,0.398
2317,246.186,0.0,0.401
2357,246.376,0.0,0.406
2388,246.48,0.0,0.405
2426,245.628,0.0,0.352
2458,244.922,0.0,0.331
2479,244.884,0.0,0.336
2517,244.98,0.0,0.338
2555,245.19,0.0,0.33
2596,245.361,0.0,0.342
2619,245.691,0.0,0.373
2659,245.85,0.0,0.38
2689,245.939,0.0,0.375
2722,246.02,0.0,0.376
2754,245.894,0.0,0.38
2785,245.949,0.0,0.376
2817,245.955,0.0,0.378
2856,246.022,0.0,0.379
2888,246.159,0.0,0.391
2918,246.347,0.0,0.402
2964,246.476,0.0,0.402
2989,246.588,0.0,0.416
3031,246.807,0.0,0.421
3060,246.955,0.0,0.421
3082,246.879,0.0,0.416
3119,246.22,0.0,0.366
3158,245.56,0.0,0.349
3194,245.337,0.0,0.343
3212,245.302,0.0,0.337
3255,245.389,0.0,0.347
3287,245.545,0.0,0.357
3324,245.67,0.0,0.356
3353,245.736,0.0,0.354
3375,245.75,0.0,0.358
3418,245.7,0.0,0.359
3459,245.663,0.0,0.358
3474,245.807,0.0,0.364
3523,245.827,0.0,0.36
3557,245.979,0.0,0.377
3581,246.074,0.0,0.376
3621,245.931,0.0,0.37
3656,246.041,0.0,0.386
3690,246.227,0.0,0.376
3709,246.357,0.0,0.379
3754,246.394,0.0,0.392
3788,246.284,0.0,0.362
3823,245.718,0.0,0.346
3847,245.235,0.0,0.335
3872,245.068,0.0,0.335
3915,245.18,0.0,0.341
3938,245.29,0.0,0.346
3977,245.462,0.0,0.363
4009,245.489,0.0,0.357
4052,245.61,0.0,0.352
4115,245.588,0.0,0.356
4126,245.622,0.0,0.356
4150,245.773,0.0,0.35
4212,245.795,0.0,0.346
4251,245.845,0.0,0.356
4266,245.927,0.0,0.361
4301,245.976,0.0,0.377
4327,246.032,0.0,0.377
4353,246.084,0.0,0.371
4388,246.143,0.0,0.364
4422,246.222,0.0,0.375
4446,246.226,0.0,0.366
4486,245.839,0.0,0.354
4520,245.176,0.0,0.328
4552,244.7,0.0,0.304
4574,244.623,0.0,0.302
4627,244.783,0.0,0.321
4643,244.696,0.0,0.31
4688,244.836,0.0,0.327
4720,244.941,0.0,0.327
4741,245.194,0.0,0.329
4778,245.185,0.0,0.332
4824,244.865,0.0,0.317
4848,244.918,0.0,0.323
4887,245.182,0.0,0.325
4916,245.356,0.0,0.341
4956,245.48,0.0,0.337
5022,245.562,0.0,0.336
5037,245.503,0.0,0.337
5054,245.612,0.0,0.342
5078,245.822,0.0,0.362
5118,245.797,0.0,0.346
5139,245.207,0.0,0.32
5208,244.556,0.0,0.301
5259,244.375,0.0,0.295
5282,244.535,0.0,0.312
5310,244.656,0.0,0.315
5356,244.591,0.0,0.311
5381,244.752,0.0,0.316
5411,245.066,0.0,0.325
5439,245.137,0.0,0.329
5476,245.208,0.0,0.332
5522,245.212,0.0,0.335
5539,245.181,0.0,0.333
5592,245.245,0.0,0.337
5615,245.417,0.0,0.342
5652,245.515,0.0,0.351
5673,245.548,0.0,0.349
5722,245.628,0.0,0.348
5739,245.486,0.0,0.341
5790,245.599,0.0,0.345
5818,245.451,0.0,0.331
5852,244.648,0.0,0.304
5883,243.92,0.0,0.269
5909,243.749,0.0,0.252
5950,244.077,0.0,0.273
5985,244.087,0.0,0.296
6020,244.143,0.0,0.308
6043,244.303,0.0,0.307
6095,244.395,0.0,0.295
6111,244.428,0.0,0.301
6149,243.581,0.0,0.243
6182,243.625,0.0,0.243
6203,244.267,0.0,0.296
6239,244.409,0.0,0.296
6273,244.538,0.0,0.302
6321,244.677,0.0,0.298
6352,245.143,0.0,0.335
6372,245.275,0.0,0.335
6410,245.387,0.0,0.336
6452,245.477,0.0,0.351
6485,245.244,0.0,0.331
6525,245.301,0.0,0.324
6546,245.163,0.0,0.316
6576,244.457,0.0,0.284
6623,243.954,0.0,0.283
6641,243.67,0.0,0.271
6684,243.704,0.0,0.273
6707,243.662,0.0,0.272
6754,243.684,0.0,0.269
6772,243.804,0.0,0.271
6806,243.959,0.0,0.286
6861,243.992,0.0,0.284
6887,243.969,0.0,0.287
6920,243.96,0.0,0.277
6938,243.862,0.0,0.284
6972,243.927,0.0,0.297
7008,243.898,0.0,0.293
7052,244.005,0.0,0.298
7069,244.218,0.0,0.289
7119,244.49,0.0,0.307
7135,244.608,0.0,0.303
7187,244.738,0.0,0.305
7220,244.737,0.0,0.305
7254,244.844,0.0,0.316
7289,245.092,0.0,0.324
7306,245.247,0.0,0.325
7340,245.018,0.0,0.325
7394,244.349,0.0,0.292
7409,243.788,0.0,0.273
7452,243.538,0.0,0.264
7470,243.651,0.0,0.274
7504,243.689,0.0,0.265
7535,243.738,0.0,0.269
7576,243.854,0.0,0.276
7604,243.837,0.0,0.281
7635,243.907,0.0,0.289
7691,244.03,0.0,0.285
7717,244.059,0.0,0.285
7739,244.102,0.0,0.289
7795,244.215,0.0,0.289
7814,244.399,0.0,0.288
7837,244.556,0.0,0.293
7876,244.472,0.0,0.308
7905,244.607,0.0,0.311
7943,244.805,0.0,0.314
7995,244.919,0.0,0.325
8004,244.936,0.0,0.318
8042,245.034,0.0,0.321
8087,245.2,0.0,0.325
8115,245.318,0.0,0.326
8144,245.492,0.0,0.332
8195,245.036,0.0,0.302
8227,244.108,0.0,0.27
8255,243.706,0.0,0.263
8292,243.776,0.0,0.265
8328,243.906,0.0,0.279
8367,244.139,0.0,0.294
8387,244.294,0.0,0.291
8418,244.449,0.0,0.292
8440,244.4,0.0,0.284
8482,244.396,0.0,0.294
8515,244.368,0.0,0.295
8539,244.344,0.0,0.284
8567,244.393,0.0,0.287
8601,244.489,0.0,0.293
8639,244.578,0.0,0.292
8676,244.692,0.0,0.302
8716,244.823,0.0,0.306
8734,245.031,0.0,0.326
8772,245.181,0.0,0.34
8802,245.252,0.0,0.313
8848,245.371,0.0,0.314
8882,245.636,0.0,0.318
8901,245.845,0.0,0.324
8932,245.749,0.0,0.343
8984,245.149,0.0,0.32
9011,244.511,0.0,0.284
9049,244.311,0.0,0.288
9082,244.439,0.0,0.285
9098,244.621,0.0,0.29
9134,244.892,0.0,0.314
9166,245.082,0.0,0.318
9199,245.158,0.0,0.315
9233,245.151,0.0,0.308
9266,245.02,0.0,0.307
9318,245.008,0.0,0.305
9333,245.141,0.0,0.312
9367,245.217,0.0,0.307
9398,245.208,0.0,0.322
9435,245.16,0.0,0.321
9465,245.265,0.0,0.325
9516,245.622,0.0,0.341
9549,245.749,0.0,0.326
9585,245.843,0.0,0.339
9622,245.899,0.0,0.337
9637,246.019,0.0,0.321
9668,245.882,0.0,0.332
9701,245.866,0.0,0.333
9733,245.26,0.0,0.3
9773,244.504,0.0,0.28
9802,244.265,0.0,0.281
9849,244.262,0.0,0.279
9865,244.503,0.0,0.285
9899,244.666,0.0,0.287
9934,244.889,0.0,0.307
9966,245.032,0.0,0.319
9999,245.014,0.0,0.305
10035,245.02,0.0,0.306
10076,245.114,0.0,0.309
10105,245.153,0.0,0.314
10132,245.256,0.0,0.331
10167,245.322,0.0,0.314
10202,245.449,0.0,0.311
10234,245.562,0.0,0.321
10283,245.474,0.0,0.312
10323,245.568,0.0,0.308
10345,245.887,0.0,0.317
10367,245.739,0.0,0.346
10401,245.848,0.0,0.335
10434,245.963,0.0,0.351
10468,246.295,0.0,0.343
10521,246.197,0.0,0.335
10539,245.459,0.0,0.297
10584,244.738,0.0,0.281
10604,244.404,0.0,0.276
10639,244.555,0.0,0.283
10670,244.629,0.0,0.301
10708,244.749,0.0,0.294
10763,244.656,0.0,0.283
10789,244.784,0.0,0.305
10821,245.093,0.0,0.318
10835,245.124,0.0,0.314
10868,245.119,0.0,0.314
10906,245.155,0.0,0.323
10950,245.243,0.0,0.314
10970,245.353,0.0,0.326
11005,245.52,0.0,0.319
11050,245.667,0.0,0.341
11085,245.657,0.0,0.313
11100,245.795,0.0,0.321
11132,246.068,0.0,0.338
11166,246.174,0.0,0.336
11215,245.973,0.0,0.333
11232,246.076,0.0,0.344
11268,246.332,0.0,0.352
11299,246.046,0.0,0.322
11334,245.2,0.0,0.313
11365,244.441,0.0,0.282
11400,244.18,0.0,0.283
11432,244.156,0.0,0.28
11478,244.444,0.0,0.292
11499,244.565,0.0,0.299
11561,244.658,0.0,0.307
11581,244.793,0.0,0.31
11602,244.813,0.0,0.297
11634,244.827,0.0,0.313
11679,244.863,0.0,0.306
11715,244.871,0.0,0.294
11732,244.934,0.0,0.297
11765,245.115,0.0,0.299
11798,245.304,0.0,0.32
11837,245.457,0.0,0.324
11865,245.563,0.0,0.333
11916,245.705,0.0,0.33
11948,245.936,0.0,0.331
11982,246.085,0.0,0.343
11999,246.334,0.0,0.355
12049,246.487,0.0,0.364
12082,246.379,0.0,0.315
12101,245.77,0.0,0.31
12134,244.942,0.0,0.299
12166,244.463,0.0,0.288
12200,244.439,0.0,0.272
12236,244.542,0.0,0.285
12265,244.685,0.0,0.288
12298,244.851,0.0,0.295
12337,244.897,0.0,0.312
12373,244.984,0.0,0.296
12414,244.935,0.0,0.295
12443,244.848,0.0,0.295
12464,244.765,0.0,0.3
12511,244.746,0.0,0.301
12545,244.853,0.0,0.319
12566,244.869,0.0,0.319
12600,244.967,0.0,0.297
12633,244.979,0.0,0.307
12668,245.013,0.0,0.316
12704,245.053,0.0,0.316
12738,245.274,0.0,0.313
12769,245.349,0.0,0.307
12801,245.496,0.0,0.303
12833,245.625,0.0,0.318
12874,244.962,0.0,0.292
12902,244.115,0.0,0.249
12936,243.443,0.0,0.244
12975,243.082,0.0,0.238
13010,242.347,0.0,0.224
13032,242.467,0.0,0.229
13073,243.511,0.0,0.255
13116,243.647,0.0,0.265
13140,243.65,0.0,0.244
13189,243.666,0.0,0.246
13225,243.77,0.0,0.253
13260,243.762,0.0,0.256
13270,243.672,0.0,0.257
13326,243.751,0.0,0.268
13361,243.671,0.0,0.269
13391,243.796,0.0,0.262
13420,244.03,0.0,0.271
13429,244.182,0.0,0.277
13470,244.448,0.0,0.284
13501,244.633,0.0,0.29
13534,244.766,0.0,0.292
13578,244.943,0.0,0.301
13595,244.636,0.0,0.285
13640,243.947,0.0,0.252
13660,243.323,0.0,0.236
13700,242.97,0.0,0.23
13736,243.148,0.0,0.233
13774,243.088,0.0,0.242
13806,243.305,0.0,0.247
13835,243.515,0.0,0.247
13876,243.629,0.0,0.257
13907,243.67,0.0,0.26
13928,243.602,0.0,0.253
13980,243.582,0.0,0.258
14004,243.718,0.0,0.256
14039,243.671,0.0,0.247
14078,243.794,0.0,0.254
14093,243.929,0.0,0.259
14133,243.511,0.0,0.243
14165,243.67,0.0,0.257
14201,244.287,0.0,0.277
14236,244.409,0.0,0.271
14270,244.483,0.0,0.278
14311,244.423,0.0,0.266
14341,243.626,0.0,0.236
14365,242.683,0.0,0.205
14400,242.117,0.0,0.176
14434,242.056,0.0,0.182
14471,242.392,0.0,0.205
14500,242.455,0.0,0.209
14533,242.637,0.0,0.218
14565,242.797,0.0,0.222
14601,243.093,0.0,0.233
14633,242.697,0.0,0.207
14665,242.673,0.0,0.208
14699,242.743,0.0,0.207
14737,243.273,0.0,0.25
14776,243.132,0.0,0.238
14800,243.252,0.0,0.246
14835,243.715,0.0,0.273
14876,243.865,0.0,0.28
14906,243.97,0.0,0.28
14927,243.698,0.0,0.255
14970,244.077,0.0,0.256
15001,244.116,0.0,0.251
15033,243.441,0.0,0.227
15069,242.345,0.0,0.205
15107,241.709,0.0,0.178
15140,241.413,0.0,0.158
15167,241.405,0.0,0.155
15203,241.876,0.0,0.191
15233,241.589,0.0,0.182
15270,241.656,0.0,0.19
15299,241.71,0.0,0.18
15335,241.815,0.0,0.18
15372,241.743,0.0,0.178
15421,241.787,0.0,0.191
15441,241.851,0.0,0.189
15460,241.777,0.0,0.19
15506,241.931,0.0,0.202
15546,242.111,0.0,0.205
15591,242.287,0.0,0.214
15611,242.284,0.0,0.204
15642,242.412,0.0,0.202
15665,242.747,0.0,0.214
15707,242.788,0.0,0.225
15734,242.89,0.0,0.227
15771,242.405,0.0,0.197
15802,241.157,0.0,0.14
15826,240.166,0.0,0.117
15871,239.557,0.0,0.11
15905,239.853,0.0,0.12
15936,239.906,0.0,0.119
15973,239.974,0.0,0.121
15993,239.835,0.0,0.119
16034,240.118,0.0,0.145
16065,240.246,0.0,0.146
16100,240.33,0.0,0.142
16133,240.574,0.0,0.148
16155,240.654,0.0,0.149
16200,240.673,0.0,0.15
16235,240.99,0.0,0.159
16274,241.166,0.0,0.17
16299,241.335,0.0,0.175
16332,241.322,0.0,0.175
16365,241.257,0.0,0.158
16391,241.407,0.0,0.168
16424,241.754,0.0,0.193
16468,241.928,0.0,0.197
16503,241.965,0.0,0.193
16528,241.956,0.0,0.182
16579,241.081,0.0,0.147
16605,239.859,0.0,0.106
16636,239.139,0.0,0.102
16671,238.871,0.0,0.093
16705,238.974,0.0,0.096
16736,239.499,0.0,0.12
16767,239.646,0.0,0.128
16800,240.186,0.0,0.148
16833,240.212,0.0,0.129
16857,240.302,0.0,0.136
16899,240.345,0.0,0.137
16936,240.314,0.0,0.151
16974,240.441,0.0,0.152
17000,240.544,0.0,0.151
17038,240.492,0.0,0.151
17070,240.704,0.0,0.15
17104,240.904,0.0,0.155
17144,241.365,0.0,0.168
17168,241.631,0.0,0.182
17210,241.819,0.0,0.191
17240,241.963,0.0,0.199
17264,242.02,0.0,0.195
17310,242.148,0.0,0.208
17341,242.095,0.0,0.2
17364,242.042,0.0,0.186
17389,241.23,0.0,0.151
17443,239.981,0.0,0.128
17460,239.176,0.0,0.102
17509,239.076,0.0,0.1
17561,239.185,0.0,0.105
17569,239.388,0.0,0.11
17601,239.876,0.0,0.131
17634,240.089,0.0,0.138
17667,240.262,0.0,0.141
17702,240.053,0.0,0.14
17736,240.071,0.0,0.136
17758,240.127,0.0,0.139
17809,240.297,0.0,0.143
17825,240.45,0.0,0.152
17875,240.678,0.0,0.146
17897,240.848,0.0,0.161
17938,241.054,0.0,0.162
17975,241.226,0.0,0.167
17990,241.502,0.0,0.171
18036,241.615,0.0,0.177
18071,241.662,0.0,0.185
18103,241.739,0.0,0.188
18134,241.915,0.0,0.19
18161,241.657,0.0,0.166
18199,240.632,0.0,0.134
18235,239.719,0.0,0.114
18255,239.213,0.0,0.102
18293,239.273,0.0,0.105
18327,239.964,0.0,0.136
18381,240.254,0.0,0.139
18397,240.443,0.0,0.147
18439,240.583,0.0,0.142
18477,240.489,0.0,0.145
18491,240.444,0.0,0.147
18539,240.224,0.0,0.134
18562,240.309,0.0,0.134
18593,240.821,0.0,0.166
18641,240.969,0.0,0.163
18662,240.986,0.0,0.167
18692,241.152,0.0,0.173
18743,241.447,0.0,0.178
18793,241.814,0.0,0.193
18842,242.031,0.0,0.204
18865,241.764,0.0,0.18
18893,241.262,0.0,0.147
18945,240.25,0.0,0.124
18965,239.129,0.0,0.096
18991,238.749,0.0,0.09
19043,238.75,0.0,0.099
19065,239.152,0.0,0.107
19101,239.395,0.0,0.115
19137,239.294,0.0,0.115
19160,239.449,0.0,0.118
19198,239.531,0.0,0.124
19244,239.495,0.0,0.12
19273,239.463,0.0,0.121
19310,239.967,0.0,0.122
19342,240.141,0.0,0.136
19389,240.369,0.0,0.138
19423,240.634,0.0,0.16
19466,240.934,0.0,0.168
19480,240.966,0.0,0.156
19514,241.163,0.0,0.167
19537,241.211,0.0,0.172
19562,241.458,0.0,0.182
19612,241.569,0.0,0.169
19631,241.058,0.0,0.145
19667,239.715,0.0,0.115
19700,238.713,0.0,0.095
19718,238.307,0.0,0.087
19771,238.368,0.0,0.088
19804,238.858,0.0,0.116
19821,239.081,0.0,0.113
19871,238.955,0.0,0.11
19893,239.199,0.0,0.112
19918,239.647,0.0,0.121
19973,239.721,0.0,0.123
19994,239.815,0.0,0.125
20042,239.941,0.0,0.13
20073,240.417,0.0,0.153
20097,240.689,0.0,0.16
20143,240.386,0.0,0.147
20166,240.691,0.0,0.153
20191,241.293,0.0,0.17
20239,241.53,0.0,0.182
20259,241.582,0.0,0.184
20309,241.795,0.0,0.187
20326,242.244,0.0,0.212
20364,242.172,0.0,0.194
20402,241.551,0.0,0.151
20420,240.206,0.0,0.114
20457,239.124,0.0,0.101
20503,239.151,0.0,0.102
20525,239.206,0.0,0.105
20553,239.563,0.0,0.138
20594,239.717,0.0,0.139
20624,239.904,0.0,0.137
20676,240.016,0.0,0.128
20694,240.112,0.0,0.128
20719,239.839,0.0,0.122
20772,239.858,0.0,0.127
20793,240.062,0.0,0.126
20841,240.216,0.0,0.135
20863,240.552,0.0,0.148
20902,240.764,0.0,0.149
20936,241.535,0.0,0.188
20952,241.728,0.0,0.201
20985,241.365,0.0,0.173
21036,241.549,0.0,0.176
21054,241.631,0.0,0.181
21094,241.805,0.0,0.201
21123,242.051,0.0,0.212
21177,241.969,0.0,0.195
21191,240.825,0.0,0.138
21221,239.531,0.0,0.103
21255,239.158,0.0,0.103
21304,239.067,0.0,0.105
21337,239.226,0.0,0.12
21361,239.403,0.0,0.123
21385,239.384,0.0,0.121
21430,239.621,0.0,0.13
21471,239.727,0.0,0.133
21493,239.794,0.0,0.13
21541,239.652,0.0,0.115
21563,239.737,0.0,0.118
21590,240.17,0.0,0.135
21642,240.367,0.0,0.14
21664,240.722,0.0,0.154
21685,240.947,0.0,0.16
21722,241.009,0.0,0.155
21764,241.213,0.0,0.158
21798,241.506,0.0,0.182
21821,241.705,0.0,0.186
21866,241.734,0.0,0.192
21889,241.929,0.0,0.196
21932,242.126,0.0,0.203
21965,242.255,0.0,0.193
21999,242.095,0.0,0.18
22022,240.768,0.0,0.142
22065,239.574,0.0,0.106
22099,239.376,0.0,0.108
22115,239.591,0.0,0.12
22154,239.823,0.0,0.122
22188,240.322,0.0,0.141
22232,240.56,0.0,0.148
22255,240.687,0.0,0.149
22289,240.699,0.0,0.147
22318,240.285,0.0,0.131
22355,240.302,0.0,0.132
22388,240.693,0.0,0.156
22431,240.854,0.0,0.161
22465,240.97,0.0,0.159
22499,241.171,0.0,0.167
22517,241.325,0.0,0.176
22570,241.5,0.0,0.188
22587,241.738,0.0,0.189
22619,241.908,0.0,0.198
22654,240.435,0.0,0.21
22689,240.594,0.0,0.217
22727,242.074,0.0,0.192
22777,242.268,0.0,0.197
22793,242.582,0.0,0.215
22820,241.985,0.0,0.174
22861,240.76,0.0,0.137
22890,239.767,0.0,0.112
22939,239.642,0.0,0.111
22960,239.849,0.0,0.125
22989,240.428,0.0,0.142
23045,240.752,0.0,0.149
23069,241.011,0.0,0.168
23095,241.032,0.0,0.154
23120,240.858,0.0,0.151
23157,240.8,0.0,0.156
23185,240.924,0.0,0.154
23225,241.046,0.0,0.154
23247,240.957,0.0,0.151
23288,241.122,0.0,0.159
23319,241.381,0.0,0.179
23356,241.594,0.0,0.182
23394,241.951,0.0,0.203
23418,242.131,0.0,0.223
23468,242.232,0.0,0.203
23486,242.402,0.0,0.211
23520,242.468,0.0,0.199
23555,242.55,0.0,0.2
23588,241.96,0.0,0.173
23622,240.63,0.0,0.131
23680,239.887,0.0,0.117
23696,239.723,0.0,0.114
23716,239.891,0.0,0.114
23754,240.125,0.0,0.121
23788,240.475,0.0,0.154
23823,240.717,0.0,0.16
23875,240.942,0.0,0.156
23889,240.875,0.0,0.154
23918,240.781,0.0,0.144
23952,240.804,0.0,0.143
23992,240.94,0.0,0.151
24040,241.08,0.0,0.163
24062,240.996,0.0,0.167
24093,241.178,0.0,0.177
24115,241.453,0.0,0.175
24161,241.626,0.0,0.184
24187,241.819,0.0,0.183
24222,242.022,0.0,0.19
24288,242.029,0.0,0.186
24299,241.819,0.0,0.171
24331,240.953,0.0,0.135
24381,239.795,0.0,0.113
24410,239.185,0.0,0.098
24440,239.174,0.0,0.107
24465,239.273,0.0,0.112
24495,239.484,0.0,0.117
24530,239.855,0.0,0.13
24562,240.065,0.0,0.133
24588,240.208,0.0,0.132
24618,240.163,0.0,0.135
24658,239.821,0.0,0.133
24691,239.905,0.0,0.132
24722,240.083,0.0,0.135
24779,240.286,0.0,0.129
24793,240.692,0.0,0.147
24821,240.857,0.0,0.16
24867,241.155,0.0,0.168
24891,241.32,0.0,0.166
24916,241.134,0.0,0.162
24955,241.325,0.0,0.165
24979,241.512,0.0,0.172
25017,240.641,0.0,0.122
25054,239.222,0.0,0.097
25092,238.226,0.0,0.083
25124,238.045,0.0,0.086
25155,237.984,0.0,0.089
25180,237.97,0.0,0.094
25225,238.062,0.0,0.096
25265,238.273,0.0,0.097
25293,238.45,0.0,0.096
25316,238.677,0.0,0.101
25353,238.723,0.0,0.104
25394,238.582,0.0,0.111
25417,238.734,0.0,0.108
25452,238.76,0.0,0.103
25495,239.033,0.0,0.114
25511,239.285,0.0,0.12
25551,239.525,0.0,0.127
25585,239.983,0.0,0.131
25619,239.898,0.0,0.133
25653,240.141,0.0,0.135
25690,240.378,0.0,0.141
25717,240.703,0.0,0.133
25765,240.354,0.0,0.113
25795,239.351,0.0,0.101
25817,238.095,0.0,0.086
25851,237.319,0.0,0.067
25884,237.229,0.0,0.071
25918,237.118,0.0,0.066
25953,237.242,0.0,0.076
25988,237.418,0.0,0.076
26019,237.63,0.0,0.077
26050,238.012,0.0,0.084
26083,238.054,0.0,0.084
26135,237.957,0.0,0.089
26151,238.051,0.0,0.096
26181,238.336,0.0,0.087
26218,238.553,0.0,0.097
26260,238.945,0.0,0.113
26283,239.198,0.0,0.113
26319,239.089,0.0,0.106
26365,239.329,0.0,0.114
26392,239.76,0.0,0.124
26439,239.969,0.0,0.125
26462,240.006,0.0,0.132
26488,240.275,0.0,0.138
26542,240.494,0.0,0.141
26562,239.573,0.0,0.107
26585,237.96,0.0,0.075
26619,237.113,0.0,0.072
26654,237.116,0.0,0.062
26688,237.325,0.0,0.082
26710,237.499,0.0,0.076
26753,237.705,0.0,0.087
26788,237.71,0.0,0.081
26821,237.869,0.0,0.083
26851,238.024,0.0,0.087
26883,238.048,0.0,0.084
26916,237.958,0.0,0.081
26956,238.084,0.0,0.084
26979,238.451,0.0,0.103
27037,238.687,0.0,0.108
27048,239.036,0.0,0.114
27085,239.28,0.0,0.11
27117,239.361,0.0,0.111
27153,239.594,0.0,0.115
27187,239.803,0.0,0.134
27238,239.988,0.0,0.139
27258,240.577,0.0,0.15
27299,240.795,0.0,0.155
27320,240.543,0.0,0.146
27355,240.022,0.0,0.115
27406,239.232,0.0,0.107
27423,238.17,0.0,0.092
27453,237.469,0.0,0.077
27494,237.541,0.0,0.078
27522,237.788,0.0,0.092
27564,237.823,0.0,0.088
27595,238.091,0.0,0.09
27615,238.232,0.0,0.099
27649,238.517,0.0,0.108
27684,238.522,0.0,0.102
27719,238.72,0.0,0.106
27753,238.835,0.0,0.107
27789,238.605,0.0,0.104
27820,238.806,0.0,0.107
27856,239.23,0.0,0.113
27887,239.423,0.0,0.114
27923,239.614,0.0,0.122
27956,239.809,0.0,0.133
28010,239.947,0.0,0.146
28025,240.1,0.0,0.145
28049,240.103,0.0,0.139
28085,240.269,0.0,0.146
28118,240.493,0.0,0.144
28152,240.523,0.0,0.135
28189,239.726,0.0,0.101
28215,238.412,0.0,0.087
28253,237.491,0.0,0.071
28298,237.342,0.0,0.075
28317,237.797,0.0,0.08
28356,238.048,0.0,0.092
28376,238.429,0.0,0.093
28423,238.667,0.0,0.099
28455,238.637,0.0,0.097
28477,238.601,0.0,0.093
28522,238.372,0.0,0.09
28561,238.455,0.0,0.098
28585,238.578,0.0,0.093
28630,238.71,0.0,0.099
28660,238.954,0.0,0.107
28684,239.173,0.0,0.107
28729,239.553,0.0,0.122
28764,239.737,0.0,0.124
28788,240.001,0.0,0.148
28819,240.194,0.0,0.143
28856,240.293,0.0,0.138
28889,240.507,0.0,0.145
28908,240.554,0.0,0.14
28969,239.939,0.0,0.111
29001,238.515,0.0,0.098
29046,237.746,0.0,0.087
29063,237.784,0.0,0.089
29087,237.932,0.0,0.095
29119,237.979,0.0,0.087
29158,238.362,0.0,0.086
29190,238.825,0.0,0.101
29210,238.871,0.0,0.104
29251,238.753,0.0,0.097
29284,238.682,0.0,0.1
29327,238.619,0.0,0.099
29361,238.741,0.0,0.1
29391,239.286,0.0,0.116
29452,239.498,0.0,0.121
29476,239.31,0.0,0.115
29483,239.526,0.0,0.113
29551,239.762,0.0,0.124
29579,239.774,0.0,0.119
29585,240.001,0.0,0.127
29635,240.24,0.0,0.138
29650,240.16,0.0,0.119
29682,239.132,0.0,0.087
29723,238.077,0.0,0.074
29757,237.409,0.0,0.075
29779,237.226,0.0,0.074
29827,237.355,0.0,0.073
29850,237.576,0.0,0.076
29883,237.871,0.0,0.082
29917,238.263,0.0,0.085
29958,238.356,0.0,0.091
29974,238.544,0.0,0.091
30015,238.503,0.0,0.093
30054,238.164,0.0,0.09
30091,238.275,0.0,0.091
30120,238.232,0.0,0.092
30154,238.458,0.0,0.093
30174,239.367,0.0,0.113
30217,239.615,0.0,0.124
30254,239.438,0.0,0.112
30277,239.667,0.0,0.118
30319,240.3,0.0,0.145
30352,240.328,0.0,0.133
30381,239.169,0.0,0.098
30404,237.692,0.0,0.069
30448,236.794,0.0,0.056
30483,236.448,0.0,0.057
30515,236.376,0.0,0.056
30549,236.462,0.0,0.064
30584,236.677,0.0,0.073
30617,236.946,0.0,0.075
30638,237.192,0.0,0.083
30685,237.709,0.0,0.084
30721,237.767,0.0,0.091
30764,237.811,0.0,0.086
30785,237.384,0.0,0.069
30807,237.595,0.0,0.068
30857,238.031,0.0,0.089
30874,238.265,0.0,0.098
30915,238.672,0.0,0.098
30957,238.912,0.0,0.109
30992,239.249,0.0,0.118
31023,239.46,0.0,0.122
31047,239.289,0.0,0.111
31090,239.443,0.0,0.11
31116,238.924,0.0,0.097
31156,237.461,0.0,0.07
31174,236.23,0.0,0.049
31225,235.681,0.0,0.046
31251,235.491,0.0,0.044
31285,235.509,0.0,0.044
31326,235.764,0.0,0.056
31348,235.983,0.0,0.051
31372,236.381,0.0,0.062
31427,236.524,0.0,0.069
31446,236.558,0.0,0.075
31471,236.624,0.0,0.072
31505,236.451,0.0,0.06
31554,236.611,0.0,0.065
31593,236.904,0.0,0.08
31621,236.968,0.0,0.074
31645,237.202,0.0,0.071
31684,237.463,0.0,0.073
31719,237.906,0.0,0.082
31743,238.111,0.0,0.085
31793,238.595,0.0,0.101
31809,238.827,0.0,0.111
31852,238.994,0.0,0.103
31874,238.322,0.0,0.084
31920,236.931,0.0,0.066
31960,235.709,0.0,0.054
31994,235.073,0.0,0.041
32013,235.014,0.0,0.038
32055,235.346,0.0,0.048
32089,235.536,0.0,0.05
32122,235.693,0.0,0.059
32151,235.959,0.0,0.05
32171,235.91,0.0,0.066
32221,236.087,0.0,0.06
32237,236.155,0.0,0.066
32289,236.261,0.0,0.064
32321,236.42,0.0,0.061
32360,236.664,0.0,0.071
32384,236.757,0.0,0.065
32415,237.03,0.0,0.067
32449,237.491,0.0,0.079
32470,237.76,0.0,0.08
32504,238.052,0.0,0.1
32549,238.276,0.0,0.094
32585,238.25,0.0,0.087
32618,238.507,0.0,0.091
32656,238.814,0.0,0.103
32678,238.401,0.0,0.093
32705,237.113,0.0,0.072
32757,235.849,0.0,0.052
32776,234.942,0.0,0.048
32820,235.51,0.0,0.051
32837,235.672,0.0,0.055
32888,235.949,0.0,0.057
32909,236.296,0.0,0.071
32943,236.506,0.0,0.075
32989,236.188,0.0,0.055
33013,236.255,0.0,0.058
33053,236.321,0.0,0.054
33089,236.441,0.0,0.054
33122,236.994,0.0,0.062
33140,237.197,0.0,0.07
33171,237.117,0.0,0.08
33208,237.368,0.0,0.079
33263,238.034,0.0,0.085
33287,238.239,0.0,0.095
33320,238.03,0.0,0.087
33357,238.704,0.0,0.09
33402,238.889,0.0,0.102
33420,239.091,0.0,0.106
33436,238.836,0.0,0.105
33476,239.053,0.0,0.116
33505,238.559,0.0,0.086
33557,237.25,0.0,0.069
33575,236.297,0.0,0.054
33622,235.785,0.0,0.049
33658,236.075,0.0,0.061
33677,236.291,0.0,0.061
33712,236.033,0.0,0.066
33752,236.384,0.0,0.069
33771,237.2,0.0,0.082
33826,237.206,0.0,0.078
33846,236.607,0.0,0.065
33888,236.588,0.0,0.068
33907,236.701,0.0,0.069
33953,236.884,0.0,0.068
33971,237.418,0.0,0.081
34022,237.413,0.0,0.07
34048,237.609,0.0,0.08
34090,237.794,0.0,0.086
34120,238.278,0.0,0.095
34152,238.131,0.0,0.084
34177,238.312,0.0,0.094
34215,238.528,0.0,0.098
34236,239.043,0.0,0.108
34273,238.6,0.0,0.093
34324,237.167,0.0,0.059
34345,236.05,0.0,0.046
34376,235.638,0.0,0.037
34418,235.742,0.0,0.042
34446,236.111,0.0,0.052
34474,236.479,0.0,0.056
34521,236.506,0.0,0.066
34554,236.709,0.0,0.073
34588,236.594,0.0,0.061
34624,236.509,0.0,0.058
34654,236.499,0.0,0.056
34681,236.629,0.0,0.059
34707,236.75,0.0,0.071
34752,236.966,0.0,0.075
34776,237.511,0.0,0.074
34819,237.732,0.0,0.092
34839,237.918,0.0,0.087
34881,237.895,0.0,0.08
34916,238.067,0.0,0.082
34950,238.291,0.0,0.086
34969,238.78,0.0,0.098
35002,237.953,0.0,0.08
35054,236.385,0.0,0.061
35076,235.285,0.0,0.051
35103,234.634,0.0,0.046
35137,234.716,0.0,0.048
35166,234.911,0.0,0.047
35203,235.188,0.0,0.048
35241,235.584,0.0,0.059
35286,235.685,0.0,0.057
35305,235.733,0.0,0.062
35368,235.734,0.0,0.061
35395,235.818,0.0,0.065
35409,235.984,0.0,0.068
35455,236.114,0.0,0.055
35475,236.392,0.0,0.056
35499,237.092,0.0,0.072
35533,237.313,0.0,0.079
35587,237.688,0.0,0.08
35615,237.027,0.0,0.07
35636,237.212,0.0,0.076
35673,237.475,0.0,0.077
35706,238.026,0.0,0.084
35754,237.207,0.0,0.065
35773,235.651,0.0,0.051
35802,234.392,0.0,0.044
35843,233.99,0.0,0.035
35886,233.901,0.0,0.049
35915,234.022,0.0,0.053
35956,234.189,0.0,0.052
35989,234.298,0.0,0.042
36009,234.558,0.0,0.034
36041,234.767,0.0,0.048
36090,234.784,0.0,0.042
36111,235.0,0.0,0.052
36165,235.093,0.0,0.048
36170,234.72,0.0,0.051
36209,234.905,0.0,0.052
36238,235.336,0.0,0.052
36291,235.615,0.0,0.058
36306,236.249,0.0,0.062
36354,236.66,0.0,0.072
36378,237.104,0.0,0.064
36402,237.781,0.0,0.07
36439,238.721,0.0,0.087
36488,239.408,0.0,0.095
36515,239.297,0.0,0.083
36555,239.001,0.0,0.08
36575,238.922,0.0,0.072
36606,238.843,0.0,0.075
36657,239.56,0.0,0.076
36682,239.958,0.0,0.091
36705,240.67,0.0,0.098
36756,241.612,0.0,0.126
36773,242.706,0.0,0.137
36807,243.653,0.0,0.159
36859,244.615,0.0,0.169
36876,245.013,0.0,0.16
36899,244.836,0.0,0.139
36946,242.662,0.0,0.068
36970,238.754,0.0,0.039
37019,236.04,0.0,0.032
37041,235.546,0.0,0.034
37092,235.642,0.0,0.034
37108,235.376,0.0,0.017
37155,235.59,0.0,0.022
37190,235.413,0.0,0.029
37210,235.626,0.0,0.021
37242,236.211,0.0,0.03
37269,236.323,0.0,0.027
37309,235.845,0.0,0.024
37355,234.261,0.0,0.018
37373,232.816,0.0,0.009
37403,232.422,0.0,0.006
37443,232.494,0.0,0.005
37465,232.855,0.0,0.008
37500,233.566,0.0,0.021
37531,233.994,0.0,0.022
37575,234.097,0.0,0.026
37619,234.369,0.0,0.024
37634,234.716,0.0,0.024
37664,234.93,0.0,0.029
37699,234.978,0.0,0.021
37737,235.343,0.0,0.018
37768,236.098,0.0,0.023
37806,236.547,0.0,0.025
37840,236.592,0.0,0.027
37890,237.025,0.0,0.032
37905,237.69,0.0,0.035
37941,238.001,0.0,0.04
37965,238.146,0.0,0.037
38007,238.39,0.0,0.034
38039,238.755,0.0,0.04
38067,239.017,0.0,0.045
38106,238.42,0.0,0.027
38140,237.073,0.0,0.029
38161,235.839,0.0,0.029
38202,235.373,0.0,0.029
38239,235.8,0.0,0.022
38268,236.161,0.0,0.031
38298,236.647,0.0,0.032
38341,236.96,0.0,0.024
38363,236.755,0.0,0.03
38410,236.816,0.0,0.028
38448,236.904,0.0,0.024
38476,236.728,0.0,0.021
38500,236.898,0.0,0.02
38531,237.105,0.0,0.022
38576,237.573,0.0,0.036
38618,237.781,0.0,0.04
38639,238.327,0.0,0.039
38690,238.478,0.0,0.039
38705,238.074,0.0,0.023
38753,238.231,0.0,0.029
38770,238.501,0.0,0.038
38801,238.615,0.0,0.039
38837,238.888,0.0,0.044
38868,239.002,0.0,0.041
38898,238.135,0.0,0.034
38930,236.695,0.0,0.034
38968,235.688,0.0,0.018
39004,235.422,0.0,0.02
39031,235.896,0.0,0.022
39068,236.178,0.0,0.024
39104,236.59,0.0,0.028
39135,236.925,0.0,0.029
39175,236.78,0.0,0.024
39200,236.75,0.0,0.026
39239,236.545,0.0,0.028
39271,236.701,0.0,0.029
39316,237.535,0.0,0.029
39359,237.912,0.0,0.035
39368,237.912,0.0,0.03
39398,238.192,0.0,0.033
39434,238.693,0.0,0.036
39497,238.9,0.0,0.037
39498,239.306,0.0,0.048
39538,239.498,0.0,0.049
39559,239.633,0.0,0.047
39599,239.845,0.0,0.054
39632,239.495,0.0,0.034
39668,238.3,0.0,0.022
39701,236.928,0.0,0.023
39731,236.254,0.0,0.019
39769,236.24,0.0,0.026
39804,236.531,0.0,0.025
39839,236.932,0.0,0.028
39865,237.329,0.0,0.027
39911,237.493,0.0,0.027
39953,237.564,0.0,0.025
39982,237.421,0.0,0.026
40007,237.426,0.0,0.031
40028,237.79,0.0,0.029
40067,237.947,0.0,0.029
40105,238.212,0.0,0.028
40132,238.475,0.0,0.028
40165,238.95,0.0,0.039
40203,239.179,0.0,0.044
40240,239.263,0.0,0.047
40264,239.46,0.0,0.051
40321,239.556,0.0,0.047
40329,239.73,0.0,0.055
40380,239.906,0.0,0.051
40399,239.269,0.0,0.034
40431,237.62,0.0,0.026
40465,236.401,0.0,0.026
40501,236.153,0.0,0.016
40534,236.275,0.0,0.026
40566,236.583,0.0,0.025
40600,236.835,0.0,0.024
40637,237.092,0.0,0.022
40681,237.273,0.0,0.028
40698,237.083,0.0,0.029
40730,237.095,0.0,0.028
40766,237.2,0.0,0.023
40800,237.294,0.0,0.029
40831,237.467,0.0,0.025
40876,237.705,0.0,0.031
40918,238.144,0.0,0.026
40953,238.324,0.0,0.037
40959,238.287,0.0,0.028
41000,238.484,0.0,0.03
41032,238.816,0.0,0.037
41068,239.003,0.0,0.042
41101,239.242,0.0,0.041
41134,239.217,0.0,0.036
41166,238.249,0.0,0.026
41198,236.758,0.0,0.022
41239,235.32,0.0,0.024
41287,235.375,0.0,0.024
41306,235.658,0.0,0.023
41335,236.019,0.0,0.023
41375,236.885,0.0,0.034
41405,237.214,0.0,0.034
41457,237.196,0.0,0.024
41470,237.231,0.0,0.025
41509,237.068,0.0,0.032
41557,237.108,0.0,0.029
41585,236.644,0.0,0.02
41624,236.855,0.0,0.02
41668,237.956,0.0,0.032
41682,237.787,0.0,0.029
41712,238.046,0.0,0.029
41747,238.292,0.0,0.035
41783,238.544,0.0,0.033
41807,238.697,0.0,0.033
41835,238.945,0.0,0.036
41867,239.096,0.0,0.033
41904,238.646,0.0,0.025
41956,237.238,0.0,0.019
41970,235.861,0.0,0.022
41999,235.445,0.0,0.023
42032,235.972,0.0,0.02
42069,236.27,0.0,0.024
42102,236.306,0.0,0.017
42141,236.663,0.0,0.015
42165,237.065,0.0,0.03
42198,237.01,0.0,0.026
42232,237.017,0.0,0.022
42269,237.046,0.0,0.018
42302,237.387,0.0,0.023
42347,237.527,0.0,0.023
42372,237.533,0.0,0.026
42401,237.736,0.0,0.025
42438,237.706,0.0,0.027
42469,237.899,0.0,0.026
42507,238.472,0.0,0.034
42538,238.712,0.0,0.034
42556,238.704,0.0,0.034
42601,238.773,0.0,0.037
42634,237.748,0.0,0.016
42668,236.597,0.0,0.027
42700,235.786,0.0,0.022
42736,235.712,0.0,0.02
42771,236.266,0.0,0.024
42792,236.618,0.0,0.031
42843,236.738,0.0,0.023
42875,237.031,0.0,0.025
42896,237.239,0.0,0.028
42931,237.228,0.0,0.027
42970,237.465,0.0,0.02
43002,237.547,0.0,0.028
43048,237.577,0.0,0.018
43071,237.756,0.0,0.021
43093,237.863,0.0,0.022
43138,238.065,0.0,0.025
43158,238.401,0.0,0.03
43199,238.624,0.0,0.031
43234,238.397,0.0,0.026
43271,238.609,0.0,0.029
43304,238.957,0.0,0.03
43330,238.977,0.0,0.026
43371,237.924,0.0,0.023
43398,236.368,0.0,0.019
43432,235.706,0.0,0.023
43468,235.496,0.0,0.023
43487,235.375,0.0,0.027
43535,235.612,0.0,0.02
43569,236.486,0.0,0.034
43601,236.743,0.0,0.028
43641,236.56,0.0,0.022
43666,236.616,0.0,0.024
43699,236.426,0.0,0.02
43734,236.501,0.0,0.023
43769,236.873,0.0,0.023
43798,237.089,0.0,0.023
43830,237.244,0.0,0.025
43862,237.503,0.0,0.024
43902,238.014,0.0,0.026
43941,238.203,0.0,0.03
43966,238.189,0.0,0.028
43997,238.357,0.0,0.031
44034,238.426,0.0,0.027
44069,238.35,0.0,0.019
44100,237.506,0.0,0.019
44139,236.035,0.0,0.024
44187,234.85,0.0,0.013
44202,234.555,0.0,0.014
44240,235.308,0.0,0.022
44265,235.554,0.0,0.02
44309,235.553,0.0,0.022
44360,235.821,0.0,0.023
44366,236.196,0.0,0.025
44399,236.316,0.0,0.02
44420,236.353,0.0,0.022
44468,236.237,0.0,0.023
44498,236.434,0.0,0.021
44557,236.708,0.0,0.025
44560,237.587,0.0,0.026
44599,238.033,0.0,0.025
44632,238.359,0.0,0.032
44668,239.408,0.0,0.044
44692,240.75,0.0,0.068
44742,242.587,0.0,0.119
44773,244.141,0.0,0.156
44793,245.586,0.0,0.206
44838,247.195,0.0,0.254
44859,247.36,0.0,0.251
44909,247.005,0.0,0.23
44937,247.012,0.0,0.235
44960,247.515,0.0,0.223
45005,247.638,0.0,0.243
45034,247.711,0.0,0.237
45069,247.603,0.0,0.224
45097,247.384,0.0,0.218
45138,247.17,0.0,0.205
45157,246.74,0.0,0.184
45196,246.674,0.0,0.205
45230,246.221,0.0,0.181
45252,245.532,0.0,0.144
45291,244.869,0.0,0.14
45347,244.191,0.0,0.114
45379,243.421,0.0,0.107
45398,243.099,0.0,0.122
45438,243.165,0.0,0.119
45456,243.42,0.0,0.124
45505,243.786,0.0,0.142
45539,244.404,0.0,0.168
45562,244.759,0.0,0.163
45591,244.382,0.0,0.139
45639,243.551,0.0,0.103
45661,243.357,0.0,0.113
45709,243.839,0.0,0.117
45733,244.554,0.0,0.139
45752,245.469,0.0,0.173
45815,246.399,0.0,0.211
45832,247.415,0.0,0.25
45865,248.048,0.0,0.274
45885,248.525,0.0,0.307
45939,248.787,0.0,0.287
45952,248.913,0.0,0.297
46005,248.896,0.0,0.282
46038,248.192,0.0,0.218
46061,247.31,0.0,0.175
46098,246.368,0.0,0.15
46134,245.341,0.0,0.126
46158,244.729,0.0,0.114
46202,244.315,0.0,0.103
46239,243.842,0.0,0.098
46269,243.385,0.0,0.089
46285,241.989,0.0,0.043
46326,240.694,0.0,0.032
46349,239.961,0.0,0.034
46400,239.767,0.0,0.03
46434,239.659,0.0,0.027
46457,239.837,0.0,0.036
46500,240.135,0.0,0.038
46543,240.277,0.0,0.041
46567,240.175,0.0,0.035
46593,240.128,0.0,0.033
46630,240.263,0.0,0.043
46667,240.325,0.0,0.038
46682,240.423,0.0,0.041
46732,240.557,0.0,0.049
46751,240.568,0.0,0.045
46784,240.812,0.0,0.055
46819,241.022,0.0,0.05
46856,241.279,0.0,0.052
46904,241.756,0.0,0.075
46921,241.673,0.0,0.059
46957,240.482,0.0,0.033
47004,239.198,0.0,0.026
47024,238.245,0.0,0.018
47076,237.989,0.0,0.02
47101,238.297,0.0,0.022
47130,238.522,0.0,0.023
47168,239.201,0.0,0.034
47206,239.508,0.0,0.033
47223,239.37,0.0,0.036
47266,239.432,0.0,0.031
47301,239.417,0.0,0.031
47331,239.487,0.0,0.028
47353,239.668,0.0,0.036
47398,239.907,0.0,0.037
47422,240.507,0.0,0.043
47460,240.887,0.0,0.057
47498,241.191,0.0,0.057
47533,241.438,0.0,0.061
47571,241.357,0.0,0.052
47602,241.049,0.0,0.034
47645,239.634,0.0,0.022
47673,238.454,0.0,0.027
47693,238.527,0.0,0.029
47732,238.134,0.0,0.031
47769,237.017,0.0,0.022
47801,236.652,0.0,0.022
47823,236.908,0.0,0.026
47874,237.218,0.0,0.023
47888,237.046,0.0,0.016
47916,237.133,0.0,0.017
47950,237.696,0.0,0.023
47995,237.971,0.0,0.026
48036,238.301,0.0,0.03
48057,238.622,0.0,0.025
48085,238.856,0.0,0.027
48137,239.099,0.0,0.031
48155,239.347,0.0,0.035
48187,239.559,0.0,0.042
48238,239.642,0.0,0.039
48257,239.595,0.0,0.029
48286,238.801,0.0,0.02
48337,237.542,0.0,0.014
48350,236.738,0.0,0.023
48396,236.505,0.0,0.024
48418,236.723,0.0,0.025
48458,236.903,0.0,0.019
48504,237.023,0.0,0.023
48520,237.418,0.0,0.02
48556,237.956,0.0,0.035
48608,238.146,0.0,0.028
48623,238.341,0.0,0.026
48668,238.49,0.0,0.026
48701,238.344,0.0,0.028
48734,238.579,0.0,0.029
48755,238.928,0.0,0.026
48806,239.229,0.0,0.031
48821,239.717,0.0,0.043
48867,240.008,0.0,0.05
48890,239.945,0.0,0.052
48939,240.201,0.0,0.061
48951,240.367,0.0,0.053
49010,240.222,0.0,0.043
49041,239.353,0.0,0.024
49063,238.44,0.0,0.019
49082,238.299,0.0,0.018
49137,238.259,0.0,0.016
49157,238.402,0.0,0.023
49182,238.644,0.0,0.022
49214,239.098,0.0,0.037
49269,239.438,0.0,0.04
49298,239.446,0.0,0.036
49338,239.638,0.0,0.039
49366,240.105,0.0,0.054
49382,240.257,0.0,0.054
49416,240.046,0.0,0.041
49471,240.32,0.0,0.052
49498,240.599,0.0,0.062
49518,240.857,0.0,0.06
49556,241.236,0.0,0.067
49636,241.518,0.0,0.077
49662,242.174,0.0,0.093
49701,242.38,0.0,0.097
49729,242.616,0.0,0.104
49762,242.784,0.0,0.105
49799,242.632,0.0,0.097
49821,242.029,0.0,0.073
49873,241.365,0.0,0.067
49902,240.976,0.0,0.056
49936,241.086,0.0,0.06
49951,241.303,0.0,0.067
49997,241.674,0.0,0.078
50015,241.947,0.0,0.084
50053,241.913,0.0,0.083
50090,242.047,0.0,0.09
50145,242.114,0.0,0.091
50167,242.276,0.0,0.093
50180,242.416,0.0,0.093
50235,242.694,0.0,0.098
50257,242.864,0.0,0.104
50296,242.564,0.0,0.103
50337,242.744,0.0,0.105
50364,243.334,0.0,0.113
50394,243.507,0.0,0.125
50418,243.688,0.0,0.134
50467,243.837,0.0,0.135
50496,243.981,0.0,0.124
50513,244.136,0.0,0.127
50548,244.092,0.0,0.124
50579,244.206,0.0,0.131
50624,244.042,0.0,0.125
50672,243.3,0.0,0.106
50696,242.743,0.0,0.093
50713,242.741,0.0,0.099
50756,243.47,0.0,0.113
50807,243.709,0.0,0.113
50832,243.49,0.0,0.119
50850,243.733,0.0,0.129
50895,244.063,0.0,0.136
50939,244.259,0.0,0.132
50974,244.334,0.0,0.126
50988,244.394,0.0,0.119
51036,244.287,0.0,0.128
51057,244.702,0.0,0.147
51085,244.853,0.0,0.133
51138,245.019,0.0,0.146
51152,245.262,0.0,0.134
51195,245.398,0.0,0.13
51215,245.265,0.0,0.161
51251,245.485,0.0,0.148
51281,245.607,0.0,0.134
51317,245.746,0.0,0.144
51351,245.657,0.0,0.137
51378,245.799,0.0,0.131
51422,245.834,0.0,0.128
51452,245.368,0.0,0.133
51506,245.112,0.0,0.138
51525,244.974,0.0,0.134
51549,244.765,0.0,0.127
51585,244.986,0.0,0.121
51630,245.624,0.0,0.143
51657,245.786,0.0,0.141
51682,245.8,0.0,0.154
51718,245.877,0.0,0.148
51755,245.907,0.0,0.129
51788,245.959,0.0,0.14
51841,245.948,0.0,0.146
51865,246.009,0.0,0.14
51888,246.253,0.0,0.145
51937,246.375,0.0,0.153
51957,246.416,0.0,0.139
51986,246.543,0.0,0.143
52040,246.452,0.0,0.132
52056,246.543,0.0,0.122
52081,246.472,0.0,0.143
52131,246.55,0.0,0.151
52147,246.943,0.0,0.159
52181,247.021,0.0,0.154
52213,246.986,0.0,0.141
52259,246.66,0.0,0.147
52277,246.251,0.0,0.131
52313,246.047,0.0,0.13
52368,245.981,0.0,0.126
52398,246.174,0.0,0.132
52414,246.459,0.0,0.159
52446,246.682,0.0,0.147
52481,246.778,0.0,0.141
52517,246.636,0.0,0.135
52552,246.654,0.0,0.145
52600,246.673,0.0,0.138
52628,246.76,0.0,0.138
52659,246.814,0.0,0.139
52687,246.91,0.0,0.141
52717,247.006,0.0,0.141
52750,247.027,0.0,0.134
52783,247.117,0.0,0.125
52821,247.472,0.0,0.157
52859,247.528,0.0,0.157
52900,247.39,0.0,0.139
52918,247.409,0.0,0.142
52953,247.295,0.0,0.13
52996,247.359,0.0,0.141
53025,247.408,0.0,0.136
53051,246.965,0.0,0.131
53089,246.504,0.0,0.123
53133,246.424,0.0,0.117
53150,246.306,0.0,0.123
53192,246.501,0.0,0.119
53215,246.935,0.0,0.14
53249,247.067,0.0,0.136
53281,247.097,0.0,0.135
53314,247.072,0.0,0.128
53345,246.846,0.0,0.125
53390,246.868,0.0,0.126
53418,247.305,0.0,0.135
53455,247.38,0.0,0.137
53502,247.564,0.0,0.143
53523,247.637,0.0,0.148
53553,247.495,0.0,0.143
53592,247.584,0.0,0.151
53617,247.538,0.0,0.118
53654,247.45,0.0,0.127
53693,247.531,0.0,0.124
53734,247.618,0.0,0.132
53777,247.645,0.0,0.125
53783,247.204,0.0,0.131
53846,246.866,0.0,0.133
53895,246.845,0.0,0.159
53909,247.133,0.0,0.147
53946,247.424,0.0,0.156
53954,247.679,0.0,0.142
53980,247.679,0.0,0.142
54038,247.724,0.0,0.125
54052,247.667,0.0,0.134
54078,247.495,0.0,0.132
54113,247.484,0.0,0.14
54147,247.468,0.0,0.152
54180,247.499,0.0,0.148
54218,247.554,0.0,0.14
54274,247.61,0.0,0.141
54287,247.577,0.0,0.139
54319,247.655,0.0,0.156
54343,247.894,0.0,0.148
54379,247.948,0.0,0.141
54414,247.771,0.0,0.146
54452,247.846,0.0,0.157
54474,247.949,0.0,0.153
54515,247.599,0.0,0.156
54551,247.058,0.0,0.137
54585,246.765,0.0,0.143
54625,247.045,0.0,0.141
54647,247.112,0.0,0.149
54693,246.984,0.0,0.146
54719,247.036,0.0,0.151
54744,247.083,0.0,0.146
54785,247.122,0.0,0.152
54818,247.245,0.0,0.145
54846,247.202,0.0,0.152
54893,247.064,0.0,0.131
54921,247.068,0.0,0.125
54945,247.172,0.0,0.14
54995,247.219,0.0,0.143
55021,247.193,0.0,0.158
55047,247.268,0.0,0.154
55088,247.298,0.0,0.127
55132,247.336,0.0,0.135
55148,247.533,0.0,0.167
55180,247.605,0.0,0.156
55213,247.349,0.0,0.13
55254,247.106,0.0,0.135
55278,246.571,0.0,0.127
55325,246.156,0.0,0.13
55351,246.071,0.0,0.134
55405,246.143,0.0,0.14
55430,246.385,0.0,0.153
55467,246.46,0.0,0.15
55480,246.355,0.0,0.134
55515,246.375,0.0,0.132
55551,246.42,0.0,0.151
55574,246.423,0.0,0.142
55637,246.255,0.0,0.16
55641,246.251,0.0,0.146
55680,246.521,0.0,0.137
55735,246.559,0.0,0.148
55754,246.695,0.0,0.154
55790,246.746,0.0,0.137
55813,246.827,0.0,0.152
55851,246.881,0.0,0.143
55907,246.97,0.0,0.148
55934,247.024,0.0,0.151
55958,246.999,0.0,0.152
55998,247.046,0.0,0.16
56018,246.577,0.0,0.141
56053,245.912,0.0,0.14
56085,245.37,0.0,0.139
56113,245.278,0.0,0.136
56153,245.732,0.0,0.127
56172,245.837,0.0,0.131
56213,245.753,0.0,0.132
56246,246.227,0.0,0.146
56280,246.269,0.0,0.125
56313,246.247,0.0,0.146
56345,245.959,0.0,0.163
56381,245.94,0.0,0.152
56415,246.075,0.0,0.157
56456,246.147,0.0,0.156
56487,246.038,0.0,0.153
56509,246.237,0.0,0.154
56550,246.348,0.0,0.158
56589,246.421,0.0,0.149
56613,246.586,0.0,0.129
56646,246.637,0.0,0.137
56680,246.314,0.0,0.136
56730,246.375,0.0,0.139
56752,246.58,0.0,0.148
56787,246.394,0.0,0.135
56817,245.724,0.0,0.129
56843,245.231,0.0,0.14
56881,245.176,0.0,0.142
56916,245.249,0.0,0.134
56956,245.255,0.0,0.134
57001,245.36,0.0,0.12
57024,245.646,0.0,0.133
57052,245.65,0.0,0.131
57071,245.497,0.0,0.15
57115,245.459,0.0,0.149
57146,245.405,0.0,0.138
57181,245.437,0.0,0.13
57215,245.454,0.0,0.119
57252,245.505,0.0,0.119
57289,245.791,0.0,0.14
57312,245.886,0.0,0.134
57350,246.002,0.0,0.143
57377,246.069,0.0,0.136
57412,246.148,0.0,0.132
57450,246.213,0.0,0.127
57475,246.255,0.0,0.146
57515,246.234,0.0,0.127
57549,245.774,0.0,0.139
57583,245.233,0.0,0.141
57615,244.935,0.0,0.115
57655,244.979,0.0,0.118
57685,245.155,0.0,0.133
57707,245.293,0.0,0.132
57777,245.481,0.0,0.157
57783,245.609,0.0,0.151
57842,245.578,0.0,0.141
57875,245.55,0.0,0.15
57886,245.008,0.0,0.118
57915,245.022,0.0,0.118
57979,245.419,0.0,0.125
57987,245.505,0.0,0.12
58014,245.678,0.0,0.139
58043,245.749,0.0,0.138
58081,245.722,0.0,0.134
58118,245.807,0.0,0.117
58139,245.908,0.0,0.136
58202,245.996,0.0,0.131
58208,246.057,0.0,0.147
58260,245.613,0.0,0.138
58287,244.913,0.0,0.137
58306,244.484,0.0,0.127
58351,244.451,0.0,0.115
58378,244.555,0.0,0.117
58429,244.7,0.0,0.128
58456,244.85,0.0,0.134
58472,244.877,0.0,0.127
58511,244.922,0.0,0.124
58554,244.787,0.0,0.126
58573,244.799,0.0,0.12
58621,244.963,0.0,0.139
58640,245.048,0.0,0.14
58685,245.178,0.0,0.131
58717,245.286,0.0,0.13
58747,245.382,0.0,0.134
58781,245.482,0.0,0.129
58816,245.585,0.0,0.134
58854,245.608,0.0,0.139
58878,245.705,0.0,0.138
58925,245.782,0.0,0.149
58956,245.747,0.0,0.128
58983,245.129,0.0,0.126
59001,244.64,0.0,0.11
59069,244.266,0.0,0.119
59074,243.988,0.0,0.113
59112,244.095,0.0,0.114
59147,244.457,0.0,0.12
59179,244.587,0.0,0.128
59214,244.413,0.0,0.111
59237,244.467,0.0,0.121
59282,244.643,0.0,0.138
59319,244.591,0.0,0.139
59353,244.438,0.0,0.123
59376,244.473,0.0,0.132
59416,244.459,0.0,0.124
59457,244.602,0.0,0.11
59486,245.033,0.0,0.125
59507,245.148,0.0,0.123
59546,245.321,0.0,0.147
59581,245.409,0.0,0.156
59607,245.342,0.0,0.143
59650,245.459,0.0,0.147
59670,245.353,0.0,0.127
59714,244.621,0.0,0.13
59739,243.814,0.0,0.116
59779,243.563,0.0,0.123
59815,243.744,0.0,0.12
59837,243.871,0.0,0.121
59883,243.83,0.0,0.119
59905,243.999,0.0,0.124
59955,244.453,0.0,0.137
59973,244.495,0.0,0.136
60010,244.416,0.0,0.133
60047,244.448,0.0,0.124
60080,244.481,0.0,0.133
60114,244.595,0.0,0.131
60137,244.668,0.0,0.133
60184,244.824,0.0,0.143
60205,244.973,0.0,0.133
60248,245.139,0.0,0.146
60270,245.246,0.0,0.13
60321,245.348,0.0,0.132
60344,245.285,0.0,0.147
60392,245.408,0.0,0.144
60417,245.478,0.0,0.132
60435,244.843,0.0,0.127
60494,244.468,0.0,0.136
60521,244.179,0.0,0.136
60555,243.978,0.0,0.125
60575,244.097,0.0,0.127
60599,244.225,0.0,0.135
60636,244.373,0.0,0.127
60667,244.286,0.0,0.136
60721,244.319,0.0,0.135
60739,244.343,0.0,0.138
60779,244.367,0.0,0.142
60802,244.606,0.0,0.134
60847,244.742,0.0,0.131
60870,244.909,0.0,0.14
60921,245.205,0.0,0.152
60950,245.761,0.0,0.173
60970,246.589,0.0,0.205
61020,247.728,0.0,0.236
61043,248.839,0.0,0.265
61089,249.74,0.0,0.293
61117,250.356,0.0,0.324
61139,250.977,0.0,0.356
61171,251.04,0.0,0.377
61216,250.997,0.0,0.356
61234,250.825,0.0,0.38
61288,251.016,0.0,0.387
61312,251.151,0.0,0.405
61334,251.209,0.0,0.396
61383,251.321,0.0,0.392
61417,251.333,0.0,0.401
61448,251.189,0.0,0.371
61469,250.949,0.0,0.362
61498,250.742,0.0,0.339
61539,250.404,0.0,0.313
61565,249.995,0.0,0.292
61606,249.331,0.0,0.25
61654,248.869,0.0,0.23
61677,248.734,0.0,0.226
61714,248.755,0.0,0.219
61741,248.677,0.0,0.237
61778,248.481,0.0,0.218
61799,248.439,0.0,0.212
61835,248.402,0.0,0.201
61865,248.326,0.0,0.233
61917,247.852,0.0,0.225
61951,247.084,0.0,0.194
61971,246.824,0.0,0.196
62019,246.819,0.0,0.198
62041,246.939,0.0,0.191
62068,247.15,0.0,0.201
62121,247.245,0.0,0.194
62146,247.406,0.0,0.201
62194,247.452,0.0,0.218
62219,247.382,0.0,0.211
62240,247.377,0.0,0.214
62267,247.532,0.0,0.221
62321,247.603,0.0,0.209
62345,247.581,0.0,0.184
62363,247.687,0.0,0.207
62401,247.778,0.0,0.203
62436,247.861,0.0,0.205
62480,247.898,0.0,0.208
62498,248.017,0.0,0.212
62531,248.099,0.0,0.211
62584,248.185,0.0,0.221
62612,247.819,0.0,0.207
62640,247.272,0.0,0.204
62677,246.886,0.0,0.2
62714,246.796,0.0,0.192
62736,246.929,0.0,0.199
62778,247.005,0.0,0.201
62796,247.035,0.0,0.194
62851,247.163,0.0,0.19
62883,247.161,0.0,0.213
62906,247.202,0.0,0.204
62937,247.498,0.0,0.2
62979,247.391,0.0,0.197
63003,247.462,0.0,0.211
63054,247.532,0.0,0.196
63071,247.871,0.0,0.216
63112,247.969,0.0,0.219
63130,247.929,0.0,0.226
63181,248.014,0.0,0.218
63196,248.256,0.0,0.233
63251,248.329,0.0,0.232
63280,248.073,0.0,0.208
63304,248.153,0.0,0.216
63346,248.383,0.0,0.218
63388,248.163,0.0,0.208
63407,247.673,0.0,0.209
63431,247.339,0.0,0.192
63475,247.127,0.0,0.194
63497,247.171,0.0,0.196
63532,247.102,0.0,0.214
63564,247.184,0.0,0.211
63601,247.443,0.0,0.211
63654,247.53,0.0,0.209
63668,247.53,0.0,0.212
63700,247.549,0.0,0.212
63740,247.567,0.0,0.186
63818,247.621,0.0,0.2
63844,247.925,0.0,0.231
63877,248.078,0.0,0.208
63921,248.164,0.0,0.208
63960,248.279,0.0,0.223
63999,248.346,0.0,0.209
64023,248.409,0.0,0.238
64054,248.464,0.0,0.23
64083,248.366,0.0,0.217
64121,248.448,0.0,0.228
64142,248.62,0.0,0.218
64181,248.667,0.0,0.216
64196,248.143,0.0,0.201
64237,247.606,0.0,0.19
64271,247.501,0.0,0.196
64297,247.489,0.0,0.195
64348,247.614,0.0,0.211
64389,247.704,0.0,0.212
64429,247.903,0.0,0.227
64451,248.134,0.0,0.22
64483,248.231,0.0,0.198
64503,248.256,0.0,0.21
64555,248.126,0.0,0.22
64575,248.122,0.0,0.219
64597,248.258,0.0,0.215
64635,248.288,0.0,0.206
64663,248.229,0.0,0.224
64695,248.321,0.0,0.214
64726,248.402,0.0,0.208
64786,248.47,0.0,0.21
64817,248.563,0.0,0.204
64832,248.645,0.0,0.209
64867,248.866,0.0,0.216
64920,248.913,0.0,0.227
64939,248.783,0.0,0.223
64978,248.849,0.0,0.205
65015,248.806,0.0,0.206
65040,248.646,0.0,0.222
65085,248.192,0.0,0.184
65109,248.064,0.0,0.192
65143,248.008,0.0,0.184
65163,248.073,0.0,0.195
65214,248.235,0.0,0.189
65245,248.304,0.0,0.194
65261,248.165,0.0,0.228
65299,248.226,0.0,0.233
65335,248.486,0.0,0.214
65383,248.474,0.0,0.212
65406,248.195,0.0,0.201
65448,248.248,0.0,0.201
65479,248.472,0.0,0.219
65498,248.512,0.0,0.209
65532,248.468,0.0,0.208
65564,248.543,0.0,0.215
65599,248.629,0.0,0.201
65634,248.705,0.0,0.217
65680,248.908,0.0,0.208
65703,248.952,0.0,0.198
65727,248.769,0.0,0.2
65770,248.831,0.0,0.212
65799,248.921,0.0,0.237
65856,248.865,0.0,0.204
65870,248.517,0.0,0.197
65894,248.119,0.0,0.195
65932,248.002,0.0,0.182
65983,248.111,0.0,0.201
66006,248.22,0.0,0.209
66036,248.326,0.0,0.207
66060,248.404,0.0,0.204
66105,248.43,0.0,0.206
66137,248.408,0.0,0.213
66184,248.376,0.0,0.201
66208,248.244,0.0,0.211
66229,248.27,0.0,0.205
66261,248.456,0.0,0.222
66313,248.513,0.0,0.229
66331,248.587,0.0,0.233
66367,248.64,0.0,0.236
66431,248.706,0.0,0.227
66456,248.759,0.0,0.218
66460,248.887,0.0,0.221
66500,248.931,0.0,0.223
66543,248.97,0.0,0.203
66560,249.038,0.0,0.217
66593,249.15,0.0,0.198
66634,248.909,0.0,0.212
66685,248.414,0.0,0.213
66704,248.032,0.0,0.212
66738,247.918,0.0,0.205
66784,247.994,0.0,0.203
66806,248.215,0.0,0.22
66841,248.3,0.0,0.225
66862,248.224,0.0,0.209
66898,248.276,0.0,0.207
66955,248.401,0.0,0.206
66973,248.378,0.0,0.223
66997,248.379,0.0,0.217
67036,248.454,0.0,0.213
67062,248.444,0.0,0.205
67096,248.502,0.0,0.223
67132,248.63,0.0,0.214
67166,248.726,0.0,0.214
67206,248.619,0.0,0.221
67227,248.695,0.0,0.221
67269,248.866,0.0,0.209
67296,248.916,0.0,0.206
67347,249.032,0.0,0.226
67385,249.102,0.0,0.218
67412,249.177,0.0,0.219
67432,249.052,0.0,0.214
67466,248.522,0.0,0.2
67502,248.059,0.0,0.199
67555,247.805,0.0,0.194
67570,247.796,0.0,0.2
67597,247.931,0.0,0.2
67637,248.006,0.0,0.222
67670,248.007,0.0,0.213
67693,248.111,0.0,0.221
67732,248.337,0.0,0.2
67766,248.366,0.0,0.232
67798,248.198,0.0,0.212
67846,248.236,0.0,0.206
67866,248.445,0.0,0.217
67918,248.537,0.0,0.224
67932,248.607,0.0,0.226
67968,248.702,0.0,0.246
68025,248.826,0.0,0.208
68046,248.804,0.0,0.219
68063,248.884,0.0,0.226
68100,248.962,0.0,0.232
68139,249.005,0.0,0.221
68180,249.073,0.0,0.229
68203,249.164,0.0,0.244
68255,249.076,0.0,0.229
68268,248.565,0.0,0.21
68298,248.021,0.0,0.213
68338,247.825,0.0,0.213
68365,247.8,0.0,0.215
68397,248.055,0.0,0.225
68434,248.127,0.0,0.217
68460,248.063,0.0,0.219
68495,248.343,0.0,0.239
68532,248.42,0.0,0.222
68587,248.45,0.0,0.224
68605,248.378,0.0,0.221
68630,248.454,0.0,0.238
68672,248.502,0.0,0.238
68723,248.611,0.0,0.233
68740,248.566,0.0,0.229
68767,248.631,0.0,0.234
68790,248.747,0.0,0.23
68828,249.033,0.0,0.229
68866,249.126,0.0,0.236
68892,249.204,0.0,0.232
68934,249.213,0.0,0.254
68978,249.312,0.0,0.24
68998,249.258,0.0,0.235
69040,248.879,0.0,0.226
69061,248.431,0.0,0.231
69113,248.076,0.0,0.221
69133,248.066,0.0,0.205
69178,248.116,0.0,0.206
69201,248.152,0.0,0.228
69229,248.141,0.0,0.234
69268,248.265,0.0,0.251
69298,248.356,0.0,0.234
69344,248.332,0.0,0.233
69378,248.324,0.0,0.237
69404,248.409,0.0,0.226
69435,248.46,0.0,0.228
69457,248.537,0.0,0.209
69492,248.612,0.0,0.215
69529,248.805,0.0,0.23
69563,248.922,0.0,0.239
69594,248.924,0.0,0.239
69638,249.008,0.0,0.244
69665,249.003,0.0,0.243
69705,249.08,0.0,0.233
69722,249.329,0.0,0.222
69762,249.365,0.0,0.227
69796,248.957,0.0,0.224
69832,248.366,0.0,0.219
69895,247.913,0.0,0.213
69918,247.817,0.0,0.213
69953,247.911,0.0,0.228
69962,248.033,0.0,0.229
70024,248.199,0.0,0.238
70050,248.308,0.0,0.231
70087,248.343,0.0,0.215
70130,248.385,0.0,0.228
70138,248.394,0.0,0.249
70185,248.422,0.0,0.229
70216,248.444,0.0,0.212
70231,248.533,0.0,0.222
70269,248.709,0.0,0.258
70290,248.794,0.0,0.271
70338,248.993,0.0,0.219
70369,249.078,0.0,0.22
70393,249.088,0.0,0.224
70427,249.145,0.0,0.227
70463,249.006,0.0,0.238
70496,249.088,0.0,0.231
70533,249.193,0.0,0.236
70562,249.097,0.0,0.219
70598,248.714,0.0,0.213
70633,248.22,0.0,0.218
70656,248.258,0.0,0.231
70710,248.304,0.0,0.232
70729,248.278,0.0,0.226
70763,248.403,0.0,0.224
70796,248.44,0.0,0.208
70829,248.522,0.0,0.213
70868,248.499,0.0,0.222
70892,248.473,0.0,0.228
70932,248.627,0.0,0.218
70958,248.682,0.0,0.221
71003,248.567,0.0,0.206
71036,248.619,0.0,0.219
71057,248.58,0.0,0.224
71103,248.675,0.0,0.208
71137,248.886,0.0,0.216
71162,248.938,0.0,0.222
71193,249.041,0.0,0.218
71232,249.125,0.0,0.23
71251,249.25,0.0,0.213
71300,249.253,0.0,0.212
71321,248.698,0.0,0.206
71379,248.194,0.0,0.212
71390,247.908,0.0,0.231
71432,247.94,0.0,0.231
71456,248.37,0.0,0.212
71511,248.514,0.0,0.201
71529,248.665,0.0,0.226
71560,248.736,0.0,0.221
71595,248.804,0.0,0.236
71632,248.776,0.0,0.226
71663,248.569,0.0,0.217
71706,248.617,0.0,0.22
71731,248.933,0.0,0.214
71766,248.993,0.0,0.223
71796,248.798,0.0,0.217
71830,248.874,0.0,0.222
71862,248.93,0.0,0.223
71927,248.894,0.0,0.197
71928,248.959,0.0,0.189
71976,249.021,0.0,0.187
71995,249.179,0.0,0.22
72033,248.859,0.0,0.228
72066,248.204,0.0,0.186
72091,247.897,0.0,0.206
72131,247.939,0.0,0.189
72162,248.033,0.0,0.188
72202,248.15,0.0,0.208
72228,248.258,0.0,0.205
72262,248.639,0.0,0.219
72296,248.675,0.0,0.229
72320,248.41,0.0,0.215
72381,248.415,0.0,0.199
72387,248.508,0.0,0.201
72431,248.567,0.0,0.211
72465,248.54,0.0,0.208
72498,248.581,0.0,0.22
72523,248.87,0.0,0.227
72559,248.93,0.0,0.232
72595,248.754,0.0,0.2
72634,248.825,0.0,0.197
72670,248.799,0.0,0.201
72691,248.681,0.0,0.202
72737,248.327,0.0,0.199
72769,247.809,0.0,0.194
72791,247.65,0.0,0.188
72833,247.655,0.0,0.2
72860,247.876,0.0,0.197
72905,247.951,0.0,0.197
72937,247.761,0.0,0.198
72964,247.832,0.0,0.191
73007,248.01,0.0,0.223
73025,248.005,0.0,0.232
73063,247.985,0.0,0.218
73099,248.045,0.0,0.211
73140,248.113,0.0,0.202
73156,248.242,0.0,0.217
73201,248.315,0.0,0.209
73223,248.393,0.0,0.228
73270,248.35,0.0,0.221
73305,248.43,0.0,0.214
73333,248.672,0.0,0.206
73371,248.765,0.0,0.228
73398,248.448,0.0,0.2
73439,247.843,0.0,0.191
73464,247.43,0.0,0.194
73514,247.053,0.0,0.184
73516,247.062,0.0,0.183
73548,247.098,0.0,0.188
73606,247.32,0.0,0.223
73625,247.382,0.0,0.208
73665,247.504,0.0,0.205
73695,247.576,0.0,0.202
73730,247.588,0.0,0.192
73758,247.614,0.0,0.196
73790,247.743,0.0,0.214
73837,247.83,0.0,0.209
73865,247.894,0.0,0.211
73890,248.007,0.0,0.232
73939,248.132,0.0,0.206
73958,248.221,0.0,0.205
73998,248.259,0.0,0.195
74018,248.35,0.0,0.19
74062,248.442,0.0,0.2
74084,248.384,0.0,0.205
74121,247.941,0.0,0.21
74166,247.359,0.0,0.215
74187,247.104,0.0,0.195
74229,247.062,0.0,0.197
74256,246.922,0.0,0.186
74301,246.994,0.0,0.199
74330,247.241,0.0,0.216
74368,247.379,0.0,0.212
74396,247.539,0.0,0.211
74430,247.579,0.0,0.221
74460,247.508,0.0,0.208
74484,247.556,0.0,0.211
74534,247.625,0.0,0.212
74549,247.673,0.0,0.214
74592,247.776,0.0,0.218
74627,247.848,0.0,0.209
74664,248.211,0.0,0.223
74705,248.306,0.0,0.233
74727,248.25,0.0,0.201
74764,248.321,0.0,0.189
74790,248.394,0.0,0.215
74816,248.483,0.0,0.223
74864,248.512,0.0,0.212
74884,248.313,0.0,0.212
74931,247.527,0.0,0.192
74971,247.038,0.0,0.184
74997,247.115,0.0,0.187
75019,247.31,0.0,0.199
75053,247.369,0.0,0.207
75132,247.449,0.0,0.207
75153,247.318,0.0,0.203
75187,247.418,0.0,0.208
75218,247.468,0.0,0.218
75227,247.483,0.0,0.212
75282,247.654,0.0,0.21
75291,247.736,0.0,0.205
75330,247.786,0.0,0.214
75367,247.874,0.0,0.212
75385,248.05,0.0,0.219
75431,248.023,0.0,0.223
75454,248.119,0.0,0.23
75498,248.203,0.0,0.227
75519,248.109,0.0,0.22
75579,248.178,0.0,0.204
75584,248.21,0.0,0.22
75633,248.263,0.0,0.209
75668,248.395,0.0,0.221
75688,248.472,0.0,0.205
75710,248.383,0.0,0.199
75760,247.827,0.0,0.197
75793,245.652,0.0,0.232
75835,245.468,0.0,0.235
75848,247.192,0.0,0.203
75892,247.215,0.0,0.192
75913,247.301,0.0,0.188
75945,247.399,0.0,0.194
75983,247.573,0.0,0.193
76016,247.595,0.0,0.202
76069,247.532,0.0,0.187
76088,247.571,0.0,0.186
76116,247.718,0.0,0.221
76170,247.783,0.0,0.231
76187,247.822,0.0,0.21
76230,247.919,0.0,0.209
76253,247.959,0.0,0.201
76304,248.034,0.0,0.206
76331,248.028,0.0,0.202
76354,248.092,0.0,0.207
76396,248.224,0.0,0.21
76430,248.292,0.0,0.215
76465,248.285,0.0,0.194
76486,248.363,0.0,0.205
76514,248.427,0.0,0.2
76566,248.082,0.0,0.187
76590,247.585,0.0,0.192
76621,247.209,0.0,0.219
76671,247.197,0.0,0.204
76693,247.358,0.0,0.198
76725,247.476,0.0,0.203
76760,247.601,0.0,0.193
76795,247.607,0.0,0.188
76819,247.626,0.0,0.191
76863,247.653,0.0,0.198
76881,247.649,0.0,0.211
76924,247.637,0.0,0.211
76960,247.71,0.0,0.204
76989,247.841,0.0,0.203
77019,247.883,0.0,0.188
77049,248.064,0.0,0.208
77102,248.144,0.0,0.204
77127,248.163,0.0,0.211
77174,248.22,0.0,0.205
77199,248.293,0.0,0.214
77218,248.353,0.0,0.203
77262,248.525,0.0,0.203
77281,248.621,0.0,0.202
77325,248.465,0.0,0.204
77365,248.065,0.0,0.2
77379,247.659,0.0,0.205
77438,247.49,0.0,0.21
77485,247.316,0.0,0.175
77502,247.439,0.0,0.178
77530,247.669,0.0,0.21
77547,247.808,0.0,0.211
77578,247.877,0.0,0.203
77612,247.865,0.0,0.202
77648,247.797,0.0,0.171
77701,247.806,0.0,0.182
77738,247.922,0.0,0.194
77769,248.0,0.0,0.198
77786,248.156,0.0,0.219
77833,248.228,0.0,0.224
77867,248.179,0.0,0.184
77885,248.263,0.0,0.201
77932,248.419,0.0,0.194
77949,248.497,0.0,0.197
77976,248.631,0.0,0.195
78027,248.68,0.0,0.198
78049,248.768,0.0,0.206
78079,248.835,0.0,0.208
78114,248.606,0.0,0.213
78145,248.102,0.0,0.209
78176,247.716,0.0,0.195
78226,247.697,0.0,0.19
78249,247.761,0.0,0.185
78293,247.824,0.0,0.195
78311,247.919,0.0,0.198
78362,248.029,0.0,0.212
