time,R,G,B
0,255.0,75.704,2.361
33,255.0,78.438,2.984
67,255.0,107.596,9.16
100,255.0,142.631,24.117
133,255.0,137.065,37.412
167,255.0,87.679,7.196
200,255.0,64.662,3.809
233,255.0,64.116,3.733
267,255.0,62.875,3.469
300,255.0,63.42,3.661
333,255.0,70.219,5.355
366,255.0,82.224,9.246
400,255.0,101.34,13.212
433,255.0,126.501,15.704
466,255.0,130.116,14.189
500,255.0,127.367,13.062
533,255.0,124.522,12.484
566,255.0,125.246,12.81
600,255.0,131.249,13.217
633,255.0,135.463,13.023
665,255.0,137.503,12.835
700,255.0,140.097,12.753
733,255.0,145.523,12.929
766,255.0,149.017,12.56
800,255.0,146.841,12.029
833,255.0,141.972,11.548
866,255.0,140.28,11.474
899,255.0,141.45,11.435
933,255.0,141.769,11.294
966,255.0,143.84,11.512
999,255.0,146.426,11.452
1033,255.0,148.145,11.258
1066,255.0,150.42,11.148
1099,255.0,152.597,11.006
1133,255.0,152.241,10.73
1165,255.0,151.672,10.445
1199,255.0,153.381,10.379
1232,255.0,154.964,10.306
1266,255.0,154.529,9.989
1299,255.0,154.849,9.674
1332,255.0,156.783,9.542
1366,255.0,159.55,9.466
1399,255.0,158.005,9.007
1432,255.0,152.311,8.443
1466,255.0,146.27,8.236
1499,255.0,142.569,8.244
1532,255.0,141.571,8.269
1566,255.0,142.348,8.33
1599,255.0,143.413,8.307
1632,255.0,145.72,8.296
1665,255.0,147.427,8.25
1699,255.0,147.951,8.083
1732,255.0,148.317,7.976
1765,255.0,148.806,7.903
1799,255.0,149.586,7.809
1832,255.0,150.816,7.794
1865,255.0,151.42,7.654
1899,255.0,152.79,7.582
1932,255.0,154.167,7.534
1965,255.0,154.776,7.389
1999,255.0,156.434,7.344
2032,255.0,156.59,7.15
2065,255.0,151.527,6.838
2098,255.0,142.215,6.619
2132,255.0,137.02,6.826
2165,255.0,136.362,7.139
2198,255.0,136.096,7.281
2232,255.0,136.067,7.318
2265,255.0,138.721,7.576
2298,255.0,141.745,7.563
2332,255.0,141.734,7.442
2365,255.0,142.122,7.439
2398,255.0,142.26,7.427
2432,255.0,141.117,7.311
2465,255.0,139.781,7.175
2498,255.0,140.503,7.301
2531,255.0,144.814,7.282
2565,255.0,145.772,7.104
2598,255.0,147.417,7.048
2631,255.0,149.741,6.902
2665,255.0,151.812,6.686
2698,255.0,148.962,6.253
2731,255.0,141.688,6.013
2765,255.0,134.247,6.039
2798,255.0,131.462,6.118
2831,255.0,132.008,6.296
2865,255.0,131.585,6.238
2898,255.0,132.927,6.28
2931,255.0,135.419,6.363
2964,255.0,137.058,6.256
2998,255.0,138.084,6.277
3031,255.0,138.912,6.151
3064,255.0,140.826,6.108
3098,255.0,143.176,6.024
3131,255.0,145.88,5.9
3164,255.0,147.085,5.673
3198,255.0,147.837,5.499
3231,255.0,153.382,5.516
3264,255.0,156.569,5.328
3297,255.0,158.224,5.144
3331,255.0,159.147,4.803
3364,255.0,154.352,4.598
3397,255.0,146.179,4.407
3431,255.0,139.003,4.681
3464,255.0,135.06,4.824
3497,255.0,134.336,4.983
3531,255.0,136.592,5.142
3564,255.0,138.617,5.197
3597,255.0,139.675,5.097
3631,255.0,136.683,4.813
3664,255.0,145.763,5.011
3697,255.0,149.061,4.808
3730,255.0,146.695,4.485
3764,255.0,145.203,4.164
3797,255.0,149.085,4.042
3830,255.0,156.238,4.046
3864,255.0,156.635,3.842
3897,255.0,155.764,3.721
3930,255.0,154.573,3.575
3964,255.0,154.359,3.575
3997,255.0,154.808,3.31
4030,255.0,151.163,3.1
4064,255.0,140.662,3.01
4097,255.0,129.739,3.461
4130,255.0,121.358,3.86
4163,255.0,118.918,3.971
4197,255.0,119.032,4.025
4230,255.0,116.935,4.185
4263,255.0,113.222,4.167
4297,255.0,108.914,3.954
4330,255.0,107.248,3.888
4363,255.0,110.272,4.052
4397,255.0,109.696,4.043
4430,255.0,108.778,4.087
4463,255.0,107.744,4.036
4496,255.0,105.007,4.026
4530,255.0,103.7,4.103
4563,255.0,107.175,4.167
4596,255.0,107.928,4.16
4630,255.0,107.505,4.181
4663,255.0,107.378,4.115
4696,255.0,106.917,4.034
4730,255.0,102.164,3.668
4763,255.0,94.213,3.285
4796,255.0,87.476,3.113
4830,255.0,83.453,3.048
4863,255.0,82.711,3.109
4896,255.0,85.048,3.299
4929,255.0,88.672,3.523
4963,255.0,89.936,3.549
4996,255.0,90.838,3.554
5029,255.0,91.758,3.549
5063,255.0,91.087,3.548
5096,255.0,89.834,3.55
5129,255.0,89.482,3.558
5163,255.0,89.382,3.553
5196,255.0,89.279,3.512
5229,255.0,88.378,3.525
5263,255.0,88.012,3.467
5296,255.0,88.482,3.448
5328,255.0,88.245,3.422
5362,255.0,88.936,3.401
5396,255.0,88.498,3.241
5429,255.0,82.366,2.827
5462,255.0,73.951,2.506
5496,255.0,68.666,2.399
5529,255.0,67.347,2.338
5562,255.0,70.46,2.589
5596,255.0,73.758,2.78
5629,255.0,74.811,2.814
5662,255.0,75.895,2.835
5696,255.0,75.327,2.806
5729,255.0,74.831,2.767
5762,255.0,75.44,2.787
5795,255.0,76.311,2.84
5828,255.0,76.813,2.912
5862,255.0,78.029,2.967
5895,255.0,78.406,3.047
5929,255.0,77.504,3.043
5962,255.0,77.115,3.052
5995,255.0,78.585,3.076
6029,255.0,79.316,3.044
6062,254.999,75.304,2.729
6095,254.999,67.399,2.365
6129,254.999,61.569,2.187
6162,254.998,59.723,2.173
6195,254.999,60.53,2.294
6228,254.998,61.565,2.405
6262,254.999,62.523,2.466
6295,254.999,63.995,2.482
6328,254.999,64.821,2.485
6362,254.999,64.401,2.445
6395,255.0,65.331,2.435
6428,255.0,68.2,2.57
6462,255.0,70.318,2.679
6495,255.0,72.215,2.746
6528,255.0,74.352,2.8
6562,255.0,77.14,2.915
6595,255.0,79.002,2.967
6627,255.0,80.697,2.967
6661,255.0,82.967,3.021
6695,255.0,85.008,3.082
6728,255.0,86.198,3.078
6761,255.0,82.744,2.724
6795,255.0,74.428,2.324
6828,255.0,67.319,2.146
6861,255.0,64.827,2.132
6895,255.0,66.061,2.248
6928,255.0,67.365,2.292
6961,255.0,68.961,2.386
6994,255.0,71.07,2.495
7028,255.0,71.86,2.488
7061,255.0,71.832,2.435
7094,255.0,72.194,2.447
7127,255.0,72.226,2.466
7161,255.0,72.652,2.458
7194,255.0,74.213,2.528
7228,255.0,76.063,2.614
7261,255.0,77.805,2.667
7294,255.0,79.675,2.705
7328,255.0,81.919,2.793
7361,255.0,82.838,2.807
7394,255.0,83.288,2.782
7427,255.0,84.376,2.784
7461,255.0,81.865,2.552
7494,255.0,72.784,2.163
7527,255.0,64.202,1.913
7561,255.0,60.512,1.835
7594,255.0,61.254,1.944
7627,255.0,64.269,2.092
7661,255.0,67.36,2.227
7694,255.0,70.169,2.291
7727,255.0,72.349,2.374
7761,255.0,72.352,2.337
7794,255.0,71.819,2.314
7827,255.0,72.49,2.331
7860,255.0,73.599,2.407
7894,255.0,75.67,2.539
7927,255.0,76.77,2.617
7960,255.0,77.906,2.631
7994,255.0,78.752,2.657
8027,255.0,80.544,2.67
8060,255.0,81.743,2.804
8094,255.0,82.462,2.919
8127,255.0,83.42,3.061
8160,255.0,84.946,3.242
8194,255.0,87.347,3.42
8227,255.0,86.066,3.433
8260,255.0,78.255,3.104
8293,255.0,70.128,2.949
8327,255.0,65.814,3.01
8360,255.0,64.652,3.181
8393,255.0,65.417,3.342
8427,255.0,67.792,3.58
8460,255.0,69.594,3.919
8493,255.0,69.703,4.03
8527,255.0,69.026,4.011
8560,255.0,68.043,4.107
8593,255.0,67.674,4.082
8627,255.0,68.505,4.092
8660,255.0,69.884,4.15
8693,255.0,71.242,4.209
8726,255.0,73.031,4.255
8760,255.0,74.567,4.228
8793,255.0,75.877,4.261
8826,255.0,77.087,4.236
8860,255.0,79.838,4.315
8893,255.0,80.783,4.242
8926,255.0,76.217,3.919
8960,255.0,69.327,3.639
8993,255.0,64.641,3.445
9026,255.0,63.804,3.432
9059,255.0,65.373,3.542
9093,255.0,68.864,3.809
9126,255.0,71.589,3.933
9159,255.0,73.033,3.924
9193,255.0,72.775,3.825
9226,255.0,72.454,3.772
9259,255.0,73.638,3.858
9293,255.0,74.295,3.876
9326,255.0,75.73,3.909
9359,255.0,77.301,3.975
9393,255.0,78.179,3.958
9426,255.0,80.027,4.067
9459,255.0,82.038,4.092
9491,255.0,83.457,4.058
9526,255.0,85.013,4.104
9559,255.0,86.036,4.105
9592,255.0,84.127,3.84
9626,255.0,77.706,3.472
9659,255.0,70.696,3.325
9692,255.0,65.748,3.173
9726,255.0,65.113,3.187
9759,255.0,66.84,3.305
9792,255.0,68.566,3.431
9826,255.0,70.282,3.482
9859,255.0,71.659,3.532
9892,255.0,72.111,3.547
9925,255.0,71.614,3.472
9959,255.0,71.399,3.487
9991,255.0,71.341,3.45
10025,255.0,73.369,3.568
10059,255.0,75.175,3.584
10092,255.0,76.424,3.67
10125,255.0,77.653,3.664
10159,255.0,79.032,3.703
10192,255.0,80.608,3.762
10225,255.0,81.598,3.765
10259,255.0,80.074,3.643
10292,255.0,73.04,3.252
10325,255.0,65.098,3.034
10358,255.0,60.284,2.963
10392,255.0,58.898,2.98
10425,255.0,59.926,3.074
10458,255.0,61.406,3.099
10491,255.0,62.308,3.158
10525,255.0,62.981,3.163
10558,255.0,64.374,3.23
10592,255.0,64.754,3.19
10625,255.0,64.648,3.182
10658,255.0,65.094,3.189
10691,255.0,66.435,3.219
10725,255.0,68.583,3.325
10758,255.0,71.135,3.459
10790,255.0,71.731,3.425
10825,255.0,72.464,3.438
10858,255.0,73.666,3.47
10891,255.0,73.757,3.426
10925,255.0,75.033,3.417
10958,255.0,75.016,3.332
10991,255.0,68.959,2.952
11025,255.0,61.7,2.811
11058,255.0,57.357,2.692
11091,255.0,56.317,2.648
11125,255.0,57.057,2.686
11158,255.0,58.526,2.743
11191,255.0,60.548,2.834
11224,255.0,62.421,2.951
11258,255.0,62.818,2.961
11290,255.0,62.073,2.902
11324,255.0,61.958,2.943
11358,255.0,63.06,2.964
11391,255.0,64.713,3.066
11424,255.0,66.82,3.165
11458,255.0,68.275,3.218
11491,255.0,69.356,3.245
11524,255.0,69.91,3.241
11558,255.0,71.003,3.262
11591,255.0,72.477,3.285
11624,255.0,68.269,3.003
11657,255.0,59.519,2.577
11691,255.0,54.938,2.475
11724,255.0,54.345,2.478
11757,255.0,55.988,2.565
11790,255.0,58.516,2.718
11824,255.0,61.57,2.849
11857,255.0,62.673,2.88
11891,255.0,62.627,2.833
11924,255.0,62.174,2.796
11957,255.0,61.988,2.802
11990,255.0,63.636,2.94
12024,255.0,66.525,3.2
12057,255.0,67.395,3.214
12090,255.0,67.941,3.2
12124,255.0,69.535,3.232
12157,255.0,70.715,3.295
12190,255.0,71.313,3.314
12224,255.0,71.031,3.191
12257,255.0,71.955,3.237
12290,255.0,73.981,3.371
12324,255.0,75.682,3.501
12357,255.0,71.222,3.203
12390,255.0,62.452,2.817
12423,255.0,55.684,2.608
12457,255.0,52.997,2.552
12490,255.0,53.836,2.587
12523,255.0,55.278,2.667
12557,255.0,57.631,2.77
12590,255.0,59.013,2.805
12623,255.0,58.84,2.768
12657,255.0,58.745,2.735
12690,255.0,59.782,2.878
12723,255.0,60.617,2.95
12757,255.0,61.167,2.9
12790,255.0,62.253,2.965
12823,255.0,63.475,2.974
12856,255.0,64.037,2.954
12890,255.0,64.576,2.94
12923,255.0,65.544,3.012
12956,255.0,66.666,3.06
12990,255.0,67.618,3.084
13023,255.0,68.1,3.101
13056,255.0,67.477,3.003
13090,255.0,61.21,2.68
13123,255.0,53.81,2.443
13156,255.0,49.914,2.321
13189,255.0,50.193,2.43
13223,255.0,51.392,2.547
13256,255.0,52.122,2.551
13293,255.0,53.727,2.618
13323,255.0,55.158,2.624
13356,255.0,55.253,2.597
13389,255.0,55.07,2.581
13423,255.0,55.512,2.611
13456,255.0,56.164,2.669
13489,255.0,57.003,2.662
13523,255.0,58.464,2.706
13556,255.0,60.065,2.747
13589,255.0,61.102,2.741
13623,255.0,61.723,2.744
13656,255.0,62.188,2.744
13689,255.0,62.495,2.713
13722,255.0,62.761,2.723
13756,255.0,64.073,2.747
13789,255.0,65.174,2.824
13822,255.0,63.118,2.696
13856,255.0,56.955,2.539
13889,255.0,50.539,2.321
13922,255.0,47.006,2.149
13956,255.0,47.481,2.235
13989,255.0,49.482,2.367
14022,255.0,51.91,2.514
14055,255.0,53.238,2.531
14089,255.0,53.713,2.474
14122,255.0,53.698,2.386
14155,255.0,52.75,2.281
14189,255.0,52.487,2.284
14222,255.0,54.907,2.443
14255,255.0,57.178,2.497
14289,255.0,57.909,2.446
14322,255.0,59.305,2.565
14355,255.0,61.113,2.634
14389,255.0,61.468,2.556
14422,255.0,61.662,2.507
14455,255.0,63.39,2.585
14488,255.0,66.097,2.828
14522,255.0,66.892,2.823
14555,255.0,62.33,2.477
14588,255.0,54.954,2.249
14622,255.0,49.294,2.058
14655,255.0,47.671,1.95
14688,255.0,49.163,2.025
14722,255.0,52.055,2.315
14755,255.0,54.135,2.43
14788,255.0,54.574,2.371
14822,255.0,55.155,2.337
14855,255.0,55.876,2.386
14888,255.0,55.231,2.349
14921,255.0,54.951,2.308
14955,255.0,56.809,2.39
14988,255.0,58.404,2.455
15021,255.0,58.972,2.478
15055,255.0,60.563,2.494
15088,255.0,62.328,2.543
15121,255.0,63.564,2.59
15155,255.0,64.421,2.601
15188,255.0,65.725,2.603
15221,255.0,66.557,2.603
15255,255.0,66.638,2.546
15288,255.0,61.34,2.273
15321,255.0,53.701,2.023
15354,255.0,49.254,1.927
15388,255.0,49.962,2.002
15421,255.0,51.743,2.071
15453,255.0,53.128,2.154
15488,255.0,55.251,2.253
15554,255.0,56.948,2.325
15588,255.0,56.784,2.302
15621,255.0,56.969,2.273
15654,255.0,57.562,2.298
15687,255.0,58.395,2.329
15721,255.0,60.568,2.434
15754,255.0,61.857,2.481
15787,255.0,62.122,2.499
15821,255.0,62.448,2.496
15854,255.0,63.979,2.569
15887,255.0,65.375,2.534
15921,255.0,65.85,2.516
15953,255.0,66.442,2.622
15987,255.0,64.148,2.468
16021,255.0,57.57,2.135
16054,255.0,50.066,1.918
16087,255.0,46.941,1.871
16120,255.0,47.699,1.961
16154,255.0,49.167,2.041
16187,255.0,51.134,2.114
16220,255.0,52.98,2.231
16254,255.0,53.147,2.25
16287,255.0,52.457,2.209
16320,255.0,52.088,2.167
16354,255.0,52.465,2.178
16387,255.0,53.347,2.235
16420,255.0,55.029,2.312
16453,255.0,56.798,2.351
16487,255.0,58.227,2.385
16520,255.0,59.463,2.412
16553,255.0,59.639,2.355
16587,255.0,60.896,2.387
16620,255.0,62.354,2.435
16653,255.0,63.778,2.515
16687,255.0,61.23,2.323
16720,255.0,54.029,1.995
16752,255.0,48.318,1.802
16787,255.0,46.784,1.809
16820,255.0,47.909,1.884
16853,255.0,50.839,1.909
16887,255.0,54.902,1.984
16920,255.0,57.048,2.096
16953,255.0,57.273,2.116
16986,255.0,56.918,2.107
17020,255.0,56.046,1.999
17053,255.0,56.363,2.048
17086,255.0,57.479,2.121
17120,255.0,59.689,2.206
17153,255.0,61.465,2.217
17186,255.0,61.891,2.232
17220,255.0,63.515,2.244
17252,255.0,64.956,2.251
17286,255.0,66.373,2.349
17319,255.0,68.015,2.413
17353,255.0,68.216,2.385
17386,255.0,63.804,2.103
17419,255.0,56.754,1.995
17453,255.0,49.79,1.796
17486,255.0,47.64,1.716
17519,255.0,49.141,1.809
17553,255.0,51.124,1.933
17586,255.0,52.714,1.936
17619,255.0,54.003,1.949
17653,255.0,55.314,2.001
17686,255.0,55.209,1.996
17719,255.0,54.395,1.971
17752,255.0,54.917,2.013
17786,255.0,56.722,2.167
17819,255.0,59.708,2.321
17852,255.0,61.649,2.37
17886,255.0,62.339,2.332
17919,255.0,63.372,2.363
17952,255.0,64.503,2.387
17986,255.0,64.461,2.35
18019,255.0,65.048,2.31
18052,255.0,65.617,2.328
18086,255.0,61.486,2.17
18119,255.0,54.569,1.934
18152,255.0,48.743,1.623
18185,255.0,47.832,1.612
18219,255.0,50.601,1.76
18252,255.0,52.83,1.864
18285,255.0,54.484,1.938
18319,255.0,56.671,2.116
18352,255.0,56.359,2.134
18385,255.0,53.219,2.017
18419,255.0,52.254,1.939
18452,255.0,53.219,2.002
18485,255.0,54.103,2.018
18519,255.0,55.357,2.049
18552,255.0,56.806,2.112
18585,255.0,57.738,2.145
18618,255.0,58.241,2.124
18652,255.0,58.732,2.138
18685,255.0,59.862,2.253
18718,255.0,60.373,2.286
18752,255.0,55.886,2.051
18785,254.999,48.544,1.881
18818,254.999,43.98,1.772
18852,254.999,42.642,1.773
18885,255.0,43.567,1.829
18918,255.0,45.77,2.056
18952,255.0,47.24,2.124
18985,255.0,47.372,2.037
19018,255.0,47.363,2.064
19051,255.0,47.55,2.098
19085,255.0,47.821,2.075
19118,255.0,48.285,2.021
19151,255.0,50.095,2.103
19185,255.0,52.252,2.311
19218,255.0,53.537,2.341
19251,255.0,54.567,2.314
19285,255.0,55.606,2.315
19318,255.0,56.987,2.343
19351,255.0,57.934,2.384
19384,255.0,58.506,2.314
19418,255.0,54.777,2.102
19451,255.0,47.997,1.93
19484,255.0,43.835,1.94
19518,255.0,42.301,1.829
19551,255.0,43.768,1.894
19584,255.0,46.483,2.038
19618,255.0,47.627,2.01
19651,255.0,48.647,2.042
19684,255.0,49.221,2.129
19718,255.0,48.654,2.078
19751,255.0,48.343,2.064
19784,255.0,48.881,2.083
19817,255.0,50.87,2.162
19851,255.0,52.415,2.234
19884,255.0,53.494,2.308
19917,255.0,55.252,2.357
19951,255.0,56.617,2.397
19984,255.0,56.752,2.385
20017,255.0,57.433,2.41
20051,255.0,57.852,2.354
20084,255.0,53.351,2.101
20116,255.0,46.899,1.959
20151,254.999,43.115,1.924
20184,255.0,42.906,1.922
20217,255.0,44.297,1.993
20250,255.0,45.439,2.064
20284,255.0,46.62,2.122
20317,255.0,47.795,2.129
20350,255.0,48.485,2.163
20384,254.999,48.632,2.182
20417,254.999,48.322,2.167
20450,255.0,48.745,2.135
20484,255.0,50.32,2.143
20517,255.0,52.687,2.193
20550,255.0,54.851,2.213
20584,255.0,56.442,2.307
20616,255.0,57.203,2.334
20650,255.0,57.718,2.317
20683,255.0,58.35,2.332
20717,255.0,58.914,2.355
20750,255.0,58.529,2.273
20783,255.0,54.237,2.053
20817,255.0,47.554,1.899
20850,254.999,42.97,1.785
20883,254.999,42.423,1.825
20917,254.999,43.685,1.916
20950,255.0,44.559,1.876
20983,255.0,45.605,1.975
21017,254.999,46.059,1.987
21050,254.999,45.853,1.99
21083,254.999,45.071,1.988
21116,254.999,44.291,1.906
21150,255.0,44.952,1.951
21183,255.0,46.843,2.073
21216,254.999,47.809,2.151
21250,254.999,48.049,2.176
21283,255.0,48.312,2.157
21316,254.999,48.597,2.223
21350,255.0,48.491,2.191
21383,254.999,48.71,2.205
21415,255.0,49.218,2.203
21449,255.0,50.34,2.274
21483,254.999,49.666,2.223
21516,254.998,45.628,1.97
21549,254.998,41.009,1.794
21583,254.999,39.009,1.615
21616,254.999,40.181,1.656
21649,254.999,42.694,1.826
21683,255.0,44.912,1.894
21716,255.0,46.512,1.895
21749,255.0,47.185,1.839
21783,254.999,47.428,1.868
21816,255.0,46.688,1.819
21849,255.0,46.625,1.861
21882,255.0,47.819,1.912
21915,255.0,48.523,1.913
21949,255.0,49.868,1.96
21982,255.0,52.031,2.009
22016,255.0,53.697,1.997
22049,255.0,54.63,1.999
22082,255.0,57.099,2.081
22116,255.0,58.939,2.105
22149,255.0,60.234,2.058
22182,255.0,60.654,2.029
22216,255.0,55.719,1.799
22249,255.0,48.854,1.608
22282,255.0,45.227,1.478
22315,255.0,45.18,1.519
22349,255.0,47.414,1.677
22382,255.0,49.271,1.741
22415,255.0,50.447,1.771
22449,255.0,51.277,1.728
22482,255.0,52.377,1.732
22515,255.0,53.026,1.775
22549,255.0,53.101,1.779
22582,255.0,53.92,1.845
22615,255.0,55.289,1.868
22649,255.0,56.247,1.945
22682,255.0,57.483,2.009
22715,255.0,58.889,2.028
22748,255.0,59.784,2.015
22782,255.0,60.856,2.134
22815,255.0,61.786,2.143
22848,255.0,62.596,2.142
22882,255.0,62.209,2.112
22915,255.0,56.421,1.828
22948,255.0,48.901,1.602
22982,255.0,45.106,1.503
23015,255.0,45.271,1.517
23048,255.0,46.838,1.581
23082,255.0,48.349,1.655
23115,255.0,50.041,1.71
23148,255.0,50.612,1.719
23182,255.0,50.67,1.735
23215,255.0,50.638,1.785
23248,255.0,50.36,1.761
23281,255.0,50.089,1.745
23315,255.0,51.095,1.829
23348,255.0,52.877,1.933
23381,255.0,53.737,1.906
23415,255.0,54.434,1.92
23448,255.0,55.871,1.944
23481,255.0,56.573,1.993
23514,255.0,56.688,1.957
23548,255.0,56.788,1.953
23581,255.0,55.156,1.863
23614,255.0,48.872,1.669
23648,255.0,42.377,1.486
23681,254.999,40.487,1.443
23714,254.999,41.406,1.493
23748,255.0,42.718,1.519
23781,255.0,43.986,1.567
23814,255.0,44.844,1.587
23848,255.0,45.221,1.581
23881,254.999,44.702,1.576
23914,254.999,44.085,1.574
23947,255.0,44.224,1.591
23981,255.0,45.077,1.613
24014,255.0,46.238,1.694
24047,255.0,47.728,1.762
24081,255.0,48.754,1.733
24114,255.0,49.501,1.76
24147,255.0,50.799,1.825
24181,255.0,51.518,1.789
24214,255.0,51.794,1.718
24247,255.0,50.842,1.661
24281,255.0,46.238,1.534
24314,255.0,40.726,1.342
24347,254.999,39.298,1.325
24380,255.0,40.922,1.401
24414,255.0,43.058,1.487
24447,255.0,45.218,1.535
24480,255.0,47.229,1.574
24514,255.0,47.846,1.582
24547,255.0,47.366,1.509
24580,255.0,47.006,1.503
24614,255.0,47.909,1.569
24647,255.0,48.488,1.596
24681,255.0,49.315,1.624
24714,255.0,50.856,1.66
24747,255.0,52.366,1.69
24780,255.0,53.187,1.725
24814,255.0,53.904,1.73
24847,255.0,55.278,1.732
24880,255.0,56.753,1.781
24913,255.0,53.793,1.64
24947,255.0,46.435,1.344
24980,255.0,41.526,1.223
25013,255.0,40.993,1.247
25047,255.0,42.359,1.269
25080,255.0,44.461,1.323
25113,255.0,46.287,1.375
25147,255.0,47.771,1.449
25180,255.0,48.027,1.417
25213,255.0,48.07,1.431
25246,255.0,48.149,1.427
25280,255.0,48.672,1.446
25313,255.0,49.403,1.44
25346,255.0,50.753,1.489
25380,255.0,52.615,1.595
25413,255.0,53.536,1.57
25446,255.0,54.267,1.592
25480,255.0,54.838,1.601
25513,255.0,55.402,1.625
25546,255.0,56.672,1.666
25580,255.0,53.741,1.482
25613,255.0,46.494,1.312
25646,255.0,41.102,1.196
25679,255.0,40.14,1.183
25713,255.0,41.856,1.215
25746,255.0,43.528,1.289
25779,255.0,44.741,1.33
25813,255.0,46.085,1.389
25846,255.0,46.636,1.384
25879,255.0,46.615,1.365
25913,255.0,46.685,1.377
25946,255.0,47.099,1.379
25979,255.0,48.152,1.426
26012,255.0,49.044,1.472
26046,255.0,49.815,1.514
26078,255.0,50.737,1.566
26112,255.0,51.196,1.55
26146,255.0,51.366,1.539
26179,255.0,52.307,1.609
26212,255.0,52.871,1.606
26246,255.0,52.889,1.611
26279,255.0,51.181,1.506
26312,254.999,46.112,1.341
26346,254.999,40.683,1.222
26379,254.999,37.796,1.139
26412,254.999,38.013,1.188
26445,254.999,39.298,1.252
26479,254.999,40.747,1.306
26512,255.0,41.978,1.286
26545,255.0,42.986,1.314
26578,255.0,43.685,1.325
26612,254.999,43.75,1.333
26645,255.0,43.959,1.315
26679,255.0,44.93,1.327
26712,255.0,46.291,1.345
26745,255.0,47.425,1.379
26779,255.0,48.904,1.398
26812,255.0,49.995,1.41
26845,255.0,50.77,1.387
26877,255.0,51.702,1.44
26912,255.0,52.796,1.432
26945,255.0,54.174,1.495
26978,255.0,53.897,1.457
27012,255.0,49.481,1.29
27045,255.0,43.485,1.123
27078,255.0,39.828,1.01
27112,255.0,40.367,1.064
27145,255.0,43.13,1.141
27178,255.0,45.335,1.213
27212,255.0,46.925,1.251
27245,255.0,48.005,1.247
27278,255.0,48.711,1.254
27311,255.0,48.322,1.271
27345,255.0,48.153,1.304
27377,255.0,48.315,1.289
27411,255.0,49.697,1.334
27445,255.0,51.547,1.446
27478,255.0,52.901,1.484
27511,255.0,53.587,1.479
27545,255.0,54.346,1.494
27578,255.0,56.009,1.534
27611,255.0,56.58,1.536
27645,255.0,56.924,1.547
27678,255.0,58.301,1.585
27711,255.0,59.047,1.595
27744,255.0,54.35,1.366
27778,255.0,47.099,1.202
27811,255.0,42.73,1.15
27844,255.0,42.618,1.146
27877,255.0,44.185,1.231
27911,255.0,45.139,1.269
27944,255.0,46.377,1.306
27978,255.0,48.057,1.353
28011,255.0,48.562,1.354
28044,255.0,48.27,1.363
28077,255.0,47.775,1.337
28111,255.0,48.537,1.377
28144,255.0,49.791,1.402
28177,255.0,51.14,1.473
28211,255.0,52.299,1.51
28244,255.0,53.329,1.538
28277,255.0,54.554,1.599
28311,255.0,55.236,1.579
28344,255.0,55.871,1.627
28377,255.0,56.774,1.68
28411,255.0,56.984,1.648
28444,255.0,57.499,1.628
28477,255.0,57.804,1.639
28510,255.0,53.493,1.452
28544,255.0,46.333,1.289
28577,255.0,41.533,1.175
28610,255.0,41.69,1.139
28644,255.0,44.588,1.241
28677,255.0,46.245,1.343
28710,255.0,47.399,1.355
28744,255.0,48.229,1.379
28777,255.0,48.387,1.349
28810,255.0,48.257,1.331
28844,255.0,48.225,1.317
28877,255.0,48.475,1.352
28910,255.0,49.197,1.391
28944,255.0,50.361,1.387
28977,255.0,51.998,1.428
29010,255.0,53.138,1.491
29043,255.0,53.954,1.505
29077,255.0,54.731,1.513
29110,255.0,55.265,1.519
29143,255.0,55.754,1.546
29177,255.0,56.396,1.553
29210,255.0,56.849,1.55
29243,255.0,56.56,1.503
29277,255.0,51.919,1.327
29310,255.0,45.197,1.159
29343,255.0,41.804,1.117
29376,255.0,41.824,1.106
29410,255.0,43.722,1.212
29443,255.0,45.799,1.271
29476,255.0,47.675,1.313
29510,255.0,48.974,1.325
29543,255.0,49.54,1.351
29576,255.0,48.807,1.307
29610,255.0,48.128,1.265
29643,255.0,49.271,1.318
29676,255.0,50.735,1.38
29710,255.0,51.881,1.422
29743,255.0,53.356,1.418
29776,255.0,54.83,1.444
29809,255.0,55.921,1.443
29843,255.0,57.775,1.525
29876,255.0,59.532,1.557
29909,255.0,60.288,1.569
29943,255.0,59.592,1.494
29976,255.0,54.809,1.291
30009,255.0,48.131,1.134
30043,255.0,44.138,1.051
30076,255.0,44.209,1.079
30109,255.0,46.492,1.16
30142,255.0,49.346,1.286
30176,255.0,51.877,1.332
30209,255.0,53.165,1.378
30241,255.0,53.271,1.366
30276,255.0,52.428,1.299
30309,255.0,52.461,1.314
30342,255.0,53.697,1.359
30376,255.0,55.013,1.383
30409,255.0,56.35,1.422
30442,255.0,58.381,1.505
30476,255.0,60.052,1.527
30509,255.0,60.329,1.544
30542,255.0,61.474,1.583
30575,255.0,62.51,1.588
30609,255.0,62.759,1.561
30642,255.0,62.004,1.485
30675,255.0,56.237,1.271
30709,255.0,49.03,1.139
30741,255.0,45.024,1.031
30775,255.0,45.157,1.02
30809,255.0,47.282,1.099
30842,255.0,49.869,1.206
30875,255.0,52.134,1.285
30909,255.0,53.464,1.304
30942,255.0,53.198,1.285
30975,255.0,52.892,1.293
31008,255.0,53.091,1.294
31042,255.0,53.61,1.307
31075,255.0,54.742,1.365
31108,255.0,56.093,1.401
31142,255.0,57.735,1.439
31175,255.0,59.668,1.501
31208,255.0,60.682,1.527
31241,255.0,61.377,1.507
31275,255.0,62.805,1.576
31308,255.0,63.04,1.536
31342,255.0,57.185,1.311
31375,255.0,48.854,1.097
31408,255.0,44.603,1.024
31441,255.0,44.577,1.067
31475,255.0,45.569,1.092
31508,255.0,47.521,1.17
31540,255.0,49.902,1.253
31575,255.0,50.783,1.266
31608,255.0,50.671,1.268
31641,255.0,50.359,1.252
31675,255.0,50.1,1.236
31708,255.0,49.783,1.213
31741,255.0,51.012,1.307
31774,255.0,52.274,1.326
31808,255.0,53.068,1.331
31841,255.0,54.513,1.414
31874,255.0,55.468,1.468
31908,255.0,55.426,1.457
31941,255.0,55.661,1.502
31974,255.0,54.147,1.366
32008,255.0,48.12,1.149
32040,255.0,42.102,1.015
32074,255.0,40.234,1.005
32108,255.0,40.938,1.013
32141,255.0,43.633,1.152
32174,255.0,46.083,1.194
32207,255.0,47.083,1.215
32241,255.0,47.296,1.199
32274,255.0,47.253,1.184
32307,255.0,46.971,1.152
32341,255.0,46.819,1.147
32374,255.0,47.795,1.18
32407,255.0,49.682,1.251
32441,255.0,51.096,1.286
32474,255.0,51.589,1.282
32507,255.0,52.799,1.33
32540,255.0,54.264,1.351
32574,255.0,56.041,1.412
32607,255.0,54.647,1.293
32640,255.0,48.501,1.096
32674,255.0,42.565,0.982
32707,255.0,40.689,0.919
32740,255.0,41.71,0.94
32774,255.0,43.857,1.01
32807,255.0,46.352,1.077
32840,255.0,47.768,1.132
32874,255.0,48.134,1.143
32907,255.0,47.554,1.083
32940,255.0,46.965,1.068
32974,255.0,47.444,1.114
33007,255.0,48.649,1.16
33040,255.0,50.197,1.24
33074,255.0,51.426,1.302
33107,255.0,52.317,1.308
33140,255.0,52.776,1.266
33173,255.0,54.055,1.305
33207,255.0,55.996,1.364
33240,255.0,55.846,1.285
33273,255.0,51.204,1.068
33307,255.0,44.49,0.864
33340,255.0,40.788,0.834
33373,255.0,40.827,0.841
33407,255.0,42.485,0.873
33440,255.0,43.478,0.904
33473,255.0,45.233,1.03
33506,255.0,46.244,1.03
33540,255.0,46.057,1.016
33573,255.0,45.43,0.996
33606,255.0,45.388,1.012
33640,255.0,46.423,1.055
33673,255.0,47.214,1.063
33706,255.0,48.481,1.103
33740,255.0,49.806,1.156
33773,255.0,50.486,1.147
33806,255.0,51.008,1.155
33840,255.0,52.462,1.218
33873,255.0,53.6,1.221
33906,255.0,53.665,1.194
33939,255.0,50.891,1.029
33973,255.0,44.949,0.903
34006,255.0,39.719,0.802
34039,255.0,38.356,0.806
34073,255.0,39.383,0.827
34106,255.0,40.464,0.86
34139,254.999,42.052,0.954
34173,255.0,43.157,0.958
34206,255.0,43.138,0.946
34239,255.0,43.172,0.95
34272,255.0,43.039,0.945
34306,255.0,43.463,0.959
34339,255.0,44.213,1.012
34372,255.0,45.06,1.042
34406,255.0,46.143,1.076
34439,255.0,46.852,1.088
34472,255.0,47.761,1.134
34506,255.0,48.343,1.137
34539,255.0,48.618,1.121
34572,255.0,49.067,1.116
34606,255.0,49.548,1.162
34639,255.0,49.479,1.157
34672,255.0,45.421,0.972
34706,254.999,39.589,0.858
34739,254.999,36.397,0.812
34772,254.999,36.449,0.844
34805,254.999,37.878,0.87
34839,254.999,39.576,0.912
34872,254.999,41.485,0.976
34905,255.0,42.042,0.962
34939,255.0,42.089,0.931
34972,255.0,42.036,0.91
35005,255.0,42.241,0.892
35039,255.0,43.225,0.943
35072,255.0,44.422,0.96
35105,255.0,45.848,0.99
35138,255.0,47.32,1.011
35172,255.0,48.488,1.039
35205,255.0,49.316,1.081
35238,255.0,49.704,1.083
35272,255.0,50.207,1.081
35305,255.0,51.067,1.098
35338,255.0,51.944,1.138
35372,255.0,49.098,1.01
35405,255.0,43.003,0.853
35438,255.0,38.77,0.773
35472,254.999,38.277,0.759
35505,255.0,40.024,0.812
35538,255.0,41.933,0.848
35571,255.0,43.66,0.92
35605,255.0,44.85,0.931
35638,255.0,44.967,0.919
35671,255.0,44.534,0.891
35705,255.0,44.42,0.909
35738,255.0,45.059,0.931
35771,255.0,46.26,0.984
35805,255.0,47.239,0.989
35838,255.0,48.626,1.029
35871,255.0,50.317,1.09
35904,255.0,51.708,1.096
35938,255.0,52.431,1.076
35971,255.0,52.859,1.073
36004,255.0,53.722,1.147
36038,255.0,54.704,1.165
36071,255.0,54.568,1.147
36104,255.0,49.8,0.969
36138,255.0,42.811,0.834
36171,255.0,39.191,0.762
36203,255.0,39.164,0.783
36238,255.0,40.751,0.819
36271,255.0,42.187,0.841
36304,255.0,43.519,0.9
36337,255.0,44.736,0.942
36371,255.0,45.029,0.929
36404,255.0,44.976,0.944
36438,255.0,44.822,0.944
36471,255.0,45.193,0.943
36504,255.0,46.288,0.976
36537,255.0,47.325,0.979
36571,255.0,48.639,1.043
36604,255.0,50.248,1.093
36637,255.0,51.007,1.064
36671,255.0,51.971,1.109
36703,255.0,52.774,1.095
36737,255.0,53.344,1.111
36770,255.0,53.723,1.092
36804,255.0,54.624,1.145
36837,255.0,53.759,1.066
36870,255.0,48.2,0.9
36904,255.0,41.619,0.788
36937,255.0,38.621,0.749
36970,254.999,39.2,0.786
37004,255.0,40.961,0.841
37037,255.0,42.015,0.865
37070,255.0,43.443,0.927
37104,255.0,44.471,0.958
37137,255.0,44.474,0.936
37170,255.0,44.199,0.924
37203,255.0,44.115,0.901
37237,255.0,44.487,0.932
37270,255.0,45.219,0.972
37303,255.0,46.16,0.992
37337,255.0,47.193,1.019
37370,255.0,47.912,1.021
37403,255.0,48.747,1.058
37437,255.0,49.372,1.071
37470,255.0,49.794,1.084
37502,255.0,50.284,1.067
37537,255.0,50.944,1.108
37570,255.0,51.24,1.122
37603,255.0,48.091,1.004
37636,254.999,41.887,0.85
37670,254.999,37.326,0.811
37703,254.999,36.614,0.826
37736,254.999,37.602,0.849
37770,254.999,39.461,0.894
37803,254.999,41.39,0.914
37836,255.0,43.075,0.956
37870,255.0,43.863,0.974
37903,255.0,43.317,0.945
37936,255.0,42.481,0.944
37970,255.0,42.843,0.941
38002,255.0,43.805,0.976
38036,255.0,44.989,1.0
38071,255.0,46.134,1.031
38103,255.0,47.387,1.047
38136,255.0,48.707,1.063
38169,255.0,50.855,1.127
38203,255.0,52.269,1.158
38236,255.0,52.756,1.181
38269,255.0,52.404,1.082
38303,255.0,48.837,0.966
38336,255.0,42.764,0.845
38369,254.999,39.491,0.79
38402,255.0,40.134,0.809
38436,255.0,42.397,0.842
38469,255.0,45.084,0.914
38502,255.0,47.536,0.969
38536,255.0,49.098,0.974
38569,255.0,49.66,0.99
38602,255.0,49.369,0.979
38636,255.0,48.921,0.937
38669,255.0,49.67,0.977
38702,255.0,50.921,1.005
38736,255.0,52.487,1.04
38769,255.0,54.133,1.055
38802,255.0,55.572,1.055
38835,255.0,57.565,1.098
38869,255.0,58.703,1.086
38902,255.0,59.867,1.071
38935,255.0,60.752,1.098
38969,255.0,56.783,0.917
39002,255.0,48.597,0.742
39035,255.0,43.154,0.653
39069,255.0,42.451,0.656
39102,255.0,44.531,0.695
39135,255.0,47.579,0.743
39169,255.0,50.872,0.813
39202,255.0,52.384,0.853
39235,255.0,52.897,0.845
39268,255.0,52.486,0.838
39302,255.0,51.952,0.813
39335,255.0,51.895,0.793
39368,255.0,52.913,0.827
39402,255.0,54.458,0.863
39435,255.0,55.93,0.892
39468,255.0,57.169,0.924
39502,255.0,58.392,0.944
39535,255.0,59.783,0.948
39568,255.0,61.298,0.964
39602,255.0,60.041,0.874
39635,255.0,53.353,0.7
39668,255.0,45.328,0.591
39702,255.0,42.147,0.543
39735,255.0,43.136,0.573
39768,255.0,45.059,0.605
39801,255.0,47.065,0.672
39835,255.0,49.247,0.711
39868,255.0,50.285,0.735
39901,255.0,49.858,0.712
39935,255.0,48.656,0.652
39968,255.0,48.432,0.674
40001,255.0,49.877,0.744
40035,255.0,50.683,0.74
40068,255.0,51.58,0.774
40101,255.0,52.313,0.805
40134,255.0,53.553,0.838
40168,255.0,54.985,0.847
40201,255.0,55.886,0.887
40234,255.0,54.355,0.789
40268,255.0,48.066,0.669
40301,255.0,40.96,0.552
40334,255.0,38.41,0.573
40368,255.0,38.698,0.57
40401,255.0,40.189,0.615
40434,255.0,42.281,0.664
40467,255.0,43.621,0.682
40501,255.0,44.702,0.686
40534,255.0,44.662,0.679
40567,255.0,43.767,0.624
40601,255.0,44.989,0.693
40634,255.0,46.456,0.72
40667,255.0,47.357,0.724
40701,255.0,48.999,0.776
40734,255.0,50.908,0.829
40767,255.0,51.946,0.827
40801,255.0,53.256,0.846
40834,255.0,52.224,0.777
40866,255.0,46.695,0.68
40900,255.0,41.339,0.586
40934,255.0,39.814,0.55
40967,255.0,41.221,0.57
41000,255.0,43.488,0.652
41034,255.0,45.761,0.693
41067,255.0,47.352,0.712
41100,255.0,48.223,0.725
41134,255.0,48.143,0.734
41167,255.0,47.966,0.735
41200,255.0,48.537,0.724
41234,255.0,49.901,0.766
41267,255.0,51.248,0.822
41300,255.0,52.507,0.828
41333,255.0,53.589,0.85
41366,255.0,55.167,0.897
41400,255.0,56.618,0.879
41433,255.0,55.944,0.836
41467,255.0,50.962,0.763
41500,255.0,45.189,0.674
41533,255.0,42.783,0.632
41567,255.0,43.858,0.663
41600,255.0,45.346,0.663
41633,255.0,46.627,0.707
41667,255.0,48.371,0.754
41700,255.0,49.322,0.76
41733,255.0,49.438,0.766
41766,255.0,49.464,0.78
41800,255.0,49.944,0.784
41833,255.0,50.802,0.82
41866,255.0,52.17,0.821
41900,255.0,53.49,0.844
41933,255.0,54.798,0.876
41966,255.0,56.099,0.874
42000,255.0,57.593,0.898
42033,255.0,57.947,0.915
42066,255.0,53.654,0.808
42100,255.0,48.371,0.785
42133,255.0,46.029,0.769
42165,255.0,46.167,0.743
42199,255.0,47.424,0.754
42233,255.0,48.679,0.777
42266,255.0,49.827,0.8
42299,255.0,50.655,0.79
42333,255.0,51.396,0.802
42366,255.0,51.536,0.801
42399,255.0,51.186,0.799
42433,255.0,51.753,0.818
42466,255.0,53.068,0.836
42499,255.0,54.399,0.859
42532,255.0,55.355,0.873
42566,255.0,55.596,0.856
42599,255.0,56.268,0.88
42632,255.0,57.337,0.902
42665,255.0,58.064,0.906
42699,255.0,57.987,0.891
42732,255.0,54.124,0.821
42766,255.0,49.917,0.802
42799,255.0,47.764,0.782
42832,255.0,47.772,0.763
42866,255.0,48.813,0.754
42899,255.0,50.308,0.788
42932,255.0,51.782,0.826
42965,255.0,51.811,0.789
42999,255.0,52.005,0.788
43032,255.0,52.179,0.797
43065,255.0,52.359,0.795
43099,255.0,53.018,0.814
43132,255.0,53.992,0.818
43165,255.0,55.226,0.837
43199,255.0,56.306,0.835
43232,255.0,56.958,0.852
43265,255.0,57.462,0.847
43299,255.0,58.273,0.845
43332,255.0,59.516,0.855
43365,255.0,60.027,0.864
43398,255.0,57.431,0.836
43432,255.0,53.939,0.838
43465,255.0,51.645,0.813
43498,255.0,51.61,0.79
43532,255.0,53.007,0.828
43565,255.0,54.835,0.821
43598,255.0,56.286,0.837
43632,255.0,56.856,0.836
43665,255.0,57.239,0.836
43698,255.0,57.685,0.856
43732,255.0,57.886,0.844
43765,255.0,58.401,0.867
43798,255.0,59.7,0.875
43831,255.0,61.229,0.895
43865,255.0,62.098,0.9
43898,255.0,63.167,0.92
43931,255.0,64.121,0.916
43965,255.0,65.692,0.949
43998,255.0,66.494,0.94
44031,255.0,67.665,0.962
44065,255.0,66.854,0.919
44098,255.0,63.78,0.924
44131,255.0,59.705,0.909
44165,255.0,57.657,0.912
44198,255.0,58.192,0.912
44231,255.0,59.236,0.931
44264,255.0,60.253,0.932
44298,255.0,61.162,0.925
44331,255.0,61.668,0.907
44364,255.0,62.538,0.925
44398,255.0,62.747,0.926
44431,255.0,62.894,0.916
44464,255.0,63.66,0.929
44498,255.0,64.993,0.972
44531,255.0,66.616,0.988
44564,255.0,67.816,0.992
44597,255.0,68.544,0.998
44631,255.0,69.793,1.031
44664,255.0,70.583,1.011
44697,255.0,71.292,1.046
44731,255.0,71.872,1.059
44764,255.0,72.441,1.055
44797,255.0,73.608,1.075
44831,255.0,72.06,1.009
44864,255.0,66.911,0.969
44897,255.0,62.505,1.008
44931,255.0,60.515,0.986
44964,255.0,60.666,0.996
44997,255.0,61.839,1.015
45030,255.0,62.003,0.993
45064,255.0,62.541,1.0
45097,255.0,63.54,1.017
45130,255.0,64.454,1.029
45164,255.0,64.483,1.023
45197,255.0,64.315,1.04
45230,255.0,65.054,1.052
45264,255.0,66.701,1.098
45297,255.0,68.166,1.105
45330,255.0,68.797,1.12
45364,255.0,69.913,1.13
45397,255.0,71.304,1.156
45430,255.0,71.833,1.128
45463,255.0,72.921,1.163
45497,255.0,74.048,1.181
45530,255.0,74.694,1.192
45563,255.0,75.667,1.216
45597,255.0,76.516,1.245
45630,255.0,72.725,1.152
45663,255.0,66.797,1.177
45697,255.0,63.069,1.172
45730,255.0,62.291,1.155
45763,255.0,63.288,1.177
45797,255.0,64.176,1.151
45830,255.0,64.497,1.131
45863,255.0,65.689,1.165
45896,255.0,66.813,1.193
45930,255.0,66.237,1.164
45963,255.0,66.006,1.166
45996,255.0,66.18,1.178
46030,255.0,67.966,1.227
46063,255.0,69.108,1.241
46096,255.0,69.515,1.252
46130,255.0,69.932,1.26
46163,255.0,70.741,1.266
46196,255.0,71.811,1.302
46230,255.0,72.294,1.318
46263,255.0,72.339,1.297
46296,255.0,72.76,1.307
46328,255.0,73.693,1.312
46363,255.0,74.796,1.333
46396,255.0,74.367,1.306
46429,255.0,70.367,1.226
46463,255.0,65.05,1.206
46496,255.0,61.991,1.191
46529,255.0,61.455,1.196
46563,255.0,62.749,1.199
46596,255.0,64.368,1.212
46629,255.0,65.741,1.239
46662,255.0,66.26,1.232
46696,255.0,66.989,1.245
46729,255.0,66.198,1.222
46762,255.0,66.406,1.229
46796,255.0,66.927,1.248
46828,255.0,68.8,1.296
46862,255.0,70.031,1.279
46896,255.0,71.699,1.324
46929,255.0,73.199,1.352
46962,255.0,74.506,1.356
46996,255.0,75.647,1.374
47029,255.0,76.233,1.346
47062,255.0,77.684,1.404
47095,255.0,79.505,1.472
47129,255.0,78.359,1.408
47162,255.0,73.457,1.307
47195,255.0,67.637,1.271
47229,255.0,65.003,1.269
47262,255.0,65.669,1.288
47295,255.0,67.383,1.305
47328,255.0,69.509,1.373
47362,255.0,71.149,1.387
47395,255.0,72.046,1.379
47429,255.0,72.417,1.4
47462,255.0,71.612,1.378
47495,255.0,71.433,1.386
47528,255.0,72.595,1.435
47562,255.0,73.828,1.458
47595,255.0,75.303,1.463
47627,255.0,76.957,1.489
47662,255.0,78.048,1.512
47695,255.0,79.48,1.561
47728,255.0,80.848,1.531
47762,255.0,81.631,1.562
47795,255.0,82.551,1.599
47828,255.0,81.08,1.516
47862,255.0,74.623,1.436
47895,255.0,67.609,1.386
47928,255.0,64.628,1.36
47961,255.0,65.305,1.39
47995,255.0,67.22,1.442
48028,255.0,69.813,1.517
48061,255.0,70.812,1.501
48095,255.0,71.798,1.523
48127,255.0,72.271,1.534
48161,255.0,72.001,1.528
48195,255.0,71.995,1.541
48228,255.0,72.852,1.588
48261,255.0,74.018,1.605
48295,255.0,75.086,1.621
48328,255.0,76.287,1.637
48361,255.0,77.66,1.659
48394,255.0,79.365,1.707
48428,255.0,80.608,1.722
48461,255.0,81.471,1.705
48494,255.0,80.777,1.646
48528,255.0,74.709,1.53
48561,255.0,66.616,1.459
48594,255.0,62.561,1.4
48627,255.0,63.006,1.438
48661,255.0,65.027,1.483
48694,255.0,67.257,1.563
48727,255.0,68.495,1.593
48761,255.0,70.214,1.629
48794,255.0,71.061,1.644
48827,255.0,70.117,1.617
48861,255.0,69.625,1.614
48894,255.0,70.322,1.635
48927,255.0,71.444,1.664
48961,255.0,72.446,1.681
48994,255.0,73.883,1.736
49027,255.0,75.339,1.742
49061,255.0,76.91,1.762
49094,255.0,78.131,1.768
49127,255.0,79.415,1.769
49160,255.0,79.312,1.744
49194,255.0,72.956,1.578
49227,255.0,64.975,1.465
49260,255.0,60.768,1.412
49294,255.0,60.498,1.421
49327,255.0,62.46,1.467
49360,255.0,64.876,1.519
49394,255.0,67.07,1.575
49427,255.0,68.551,1.602
49460,255.0,68.587,1.592
49494,255.0,68.073,1.571
49527,255.0,67.637,1.568
49560,255.0,68.038,1.589
49593,255.0,68.936,1.595
49627,255.0,70.025,1.626
49660,255.0,71.272,1.666
49693,255.0,72.418,1.66
49727,255.0,73.438,1.668
49760,255.0,74.686,1.697
49793,255.0,75.773,1.695
49827,255.0,72.471,1.559
49860,255.0,65.14,1.426
49893,255.0,58.955,1.323
49927,255.0,57.523,1.327
49960,255.0,59.078,1.34
49993,255.0,61.717,1.427
50026,255.0,64.463,1.507
50060,255.0,66.141,1.539
50093,255.0,66.905,1.532
50126,255.0,66.736,1.531
50160,255.0,66.227,1.515
50193,255.0,66.283,1.546
50226,255.0,67.212,1.578
50260,255.0,68.253,1.606
50293,255.0,69.905,1.64
50326,255.0,71.0,1.639
50359,255.0,72.014,1.678
50393,255.0,74.191,1.72
50426,255.0,73.495,1.642
50459,255.0,68.146,1.451
50493,255.0,61.814,1.397
50526,255.0,58.739,1.35
50559,255.0,58.751,1.336
50593,255.0,61.179,1.421
50626,255.0,64.701,1.518
50659,255.0,67.289,1.572
50693,255.0,68.894,1.569
50726,255.0,68.571,1.559
50759,255.0,67.913,1.549
50793,255.0,67.971,1.571
50826,255.0,68.834,1.61
50859,255.0,70.098,1.624
50892,255.0,71.806,1.658
50926,255.0,73.509,1.689
50959,255.0,74.87,1.705
50991,255.0,76.046,1.715
51026,255.0,77.787,1.746
51059,255.0,77.039,1.693
51092,255.0,70.62,1.529
51126,255.0,62.398,1.379
51159,255.0,58.068,1.285
51192,255.0,58.269,1.294
51225,255.0,60.689,1.386
51259,255.0,63.178,1.473
51292,255.0,65.11,1.48
51325,255.0,65.875,1.514
51359,255.0,66.097,1.527
51392,255.0,65.753,1.515
51425,255.0,65.998,1.524
51459,255.0,66.298,1.543
51491,255.0,67.308,1.554
51525,255.0,69.213,1.628
51559,255.0,70.718,1.612
51592,255.0,71.96,1.645
51625,255.0,73.508,1.691
51658,255.0,75.179,1.699
51692,255.0,73.862,1.61
51725,255.0,67.051,1.474
51758,255.0,59.528,1.284
51792,255.0,56.697,1.235
51825,255.0,57.35,1.272
51858,255.0,59.651,1.362
51892,255.0,61.672,1.427
51925,255.0,63.643,1.461
51958,255.0,64.724,1.49
51991,255.0,65.335,1.505
52025,255.0,64.975,1.486
52058,255.0,64.713,1.48
52091,255.0,65.768,1.538
52125,255.0,67.268,1.56
52158,255.0,68.667,1.587
52191,255.0,69.851,1.603
52225,255.0,71.449,1.644
52258,255.0,72.784,1.622
52290,255.0,73.604,1.643
52325,255.0,74.919,1.665
52358,255.0,74.923,1.628
52391,255.0,68.721,1.439
52425,255.0,60.175,1.279
52458,255.0,56.024,1.176
52491,255.0,56.058,1.208
52524,255.0,57.956,1.276
52558,255.0,59.991,1.334
52591,255.0,62.075,1.379
52624,255.0,63.055,1.376
52658,255.0,62.781,1.379
52691,255.0,61.921,1.342
52724,255.0,61.53,1.334
52758,255.0,62.03,1.343
52790,255.0,62.899,1.386
52824,255.0,64.012,1.381
52857,255.0,65.373,1.428
52891,255.0,67.049,1.483
52924,255.0,67.813,1.482
52958,255.0,68.456,1.477
52991,255.0,69.502,1.478
53024,255.0,70.196,1.519
53057,255.0,66.507,1.384
53091,255.0,58.827,1.181
53124,255.0,53.113,1.053
53157,255.0,52.338,1.066
53191,255.0,54.22,1.098
53224,255.0,57.139,1.227
53257,255.0,59.469,1.267
53290,255.0,60.907,1.294
53324,255.0,61.422,1.276
53357,255.0,60.931,1.275
53390,255.0,60.723,1.244
53424,255.0,61.312,1.284
53457,255.0,62.941,1.318
53490,255.0,64.677,1.347
53524,255.0,66.104,1.398
53557,255.0,67.356,1.434
53590,255.0,68.734,1.453
53624,255.0,70.428,1.488
53657,255.0,70.733,1.459
53690,255.0,65.987,1.299
53723,255.0,58.794,1.148
53757,255.0,54.656,1.047
53790,255.0,54.242,1.055
53823,255.0,56.389,1.137
53857,255.0,59.211,1.208
53890,255.0,61.519,1.265
53923,255.0,62.377,1.264
53957,255.0,62.316,1.242
53990,255.0,61.69,1.214
54023,255.0,61.588,1.226
54057,255.0,62.333,1.267
54090,255.0,63.264,1.292
54123,255.0,64.417,1.312
54156,255.0,66.16,1.353
54190,255.0,67.693,1.4
54223,255.0,68.717,1.405
54256,255.0,70.028,1.438
54290,255.0,71.409,1.436
54323,255.0,71.761,1.422
54356,255.0,68.014,1.292
54390,255.0,60.067,1.093
54423,255.0,53.911,0.987
54456,255.0,52.189,0.94
54489,255.0,53.683,0.997
54523,255.0,55.775,1.059
54556,255.0,57.848,1.097
54589,255.0,59.621,1.136
54623,255.0,60.227,1.122
54656,255.0,59.958,1.129
54689,255.0,59.709,1.105
54723,255.0,60.208,1.146
54756,255.0,60.998,1.145
54789,255.0,62.18,1.168
54823,255.0,63.399,1.172
54856,255.0,64.917,1.226
54889,255.0,66.227,1.251
54922,255.0,67.037,1.262
54956,255.0,68.295,1.272
54989,255.0,68.854,1.286
55022,255.0,64.537,1.12
55056,255.0,56.623,0.961
55089,255.0,50.786,0.823
55122,255.0,50.554,0.848
55156,255.0,52.611,0.892
55189,255.0,54.521,0.926
55222,255.0,56.191,0.986
55256,255.0,57.622,1.0
55289,255.0,57.974,1.009
55322,255.0,57.674,0.983
55355,255.0,57.465,0.989
55389,255.0,57.871,0.99
55422,255.0,58.899,1.031
55455,255.0,60.215,1.055
55489,255.0,61.321,1.061
55522,255.0,62.814,1.108
55555,255.0,63.826,1.137
55589,255.0,64.244,1.128
55622,255.0,64.814,1.141
55655,255.0,65.758,1.146
55689,255.0,66.896,1.195
55722,255.0,64.755,1.082
55755,255.0,59.005,0.954
55788,255.0,51.855,0.808
55822,255.0,48.973,0.729
55855,255.0,49.576,0.76
55888,255.0,51.562,0.828
55922,255.0,53.475,0.87
55955,255.0,54.809,0.884
55988,255.0,55.579,0.888
56022,255.0,55.711,0.883
56055,255.0,55.219,0.884
56088,255.0,54.835,0.862
56122,255.0,55.33,0.886
56155,255.0,56.891,0.939
56188,255.0,57.821,0.955
56221,255.0,58.524,0.982
56255,255.0,59.517,0.991
56288,255.0,60.193,0.99
56321,255.0,61.193,0.997
56355,255.0,62.458,1.029
56388,255.0,61.338,0.977
56421,255.0,56.054,0.858
56455,255.0,50.304,0.734
56488,255.0,48.3,0.672
56521,255.0,49.808,0.71
56554,255.0,52.626,0.819
56588,255.0,54.902,0.876
56621,255.0,55.968,0.885
56654,255.0,56.688,0.904
56688,255.0,56.38,0.843
56721,255.0,56.188,0.854
56754,255.0,56.688,0.863
56788,255.0,58.22,0.915
56821,255.0,60.004,0.93
56854,255.0,61.069,0.93
56888,255.0,62.645,0.944
56921,255.0,64.158,0.992
56953,255.0,65.22,0.996
56987,255.0,66.508,1.013
57021,255.0,68.202,1.023
57054,255.0,67.208,0.97
57087,255.0,61.169,0.824
57121,255.0,54.338,0.694
57154,255.0,51.245,0.639
57187,255.0,52.22,0.657
57221,255.0,54.622,0.717
57254,255.0,57.013,0.776
57287,255.0,58.539,0.799
57321,255.0,59.274,0.811
57354,255.0,59.699,0.802
57387,255.0,58.967,0.774
57420,255.0,59.036,0.767
57453,255.0,60.131,0.799
57487,255.0,61.423,0.821
57520,255.0,62.925,0.86
57554,255.0,63.996,0.852
57587,255.0,65.249,0.887
57620,255.0,66.325,0.891
57654,255.0,67.283,0.897
57687,255.0,68.917,0.916
57720,255.0,68.735,0.872
57754,255.0,63.439,0.744
57787,255.0,56.95,0.664
57820,255.0,52.798,0.586
57853,255.0,52.967,0.584
57887,255.0,55.082,0.641
57920,255.0,57.03,0.685
57953,255.0,58.303,0.687
57987,255.0,59.028,0.7
58020,255.0,59.352,0.691
58053,255.0,59.216,0.69
58087,255.0,59.067,0.671
58120,255.0,59.453,0.679
58153,255.0,60.526,0.735
58187,255.0,61.757,0.74
58220,255.0,62.842,0.737
58252,255.0,63.747,0.752
58286,255.0,64.715,0.754
58320,255.0,65.691,0.784
58353,255.0,66.3,0.773
58386,255.0,67.072,0.783
58420,255.0,67.914,0.786
58453,255.0,64.256,0.65
58486,255.0,58.364,0.576
58520,255.0,52.894,0.501
58553,255.0,52.049,0.511
58586,255.0,53.164,0.526
58620,255.0,54.709,0.563
58653,255.0,56.739,0.609
58686,255.0,57.854,0.614
58719,255.0,57.72,0.608
58752,255.0,57.29,0.598
58786,255.0,57.006,0.589
58819,255.0,57.44,0.595
58853,255.0,58.249,0.617
58886,255.0,59.236,0.64
58919,255.0,60.305,0.664
58953,255.0,61.081,0.675
58986,255.0,62.099,0.684
59019,255.0,63.188,0.687
59052,255.0,63.96,0.691
59086,255.0,65.068,0.712
59119,255.0,63.731,0.664
59152,255.0,58.141,0.556
59186,255.0,52.378,0.487
59219,255.0,50.781,0.473
59252,255.0,52.425,0.516
59286,255.0,55.137,0.58
59319,255.0,57.77,0.626
59352,255.0,59.648,0.659
59386,255.0,60.306,0.655
59419,255.0,59.939,0.656
59452,255.0,59.357,0.645
59485,255.0,59.81,0.645
59519,255.0,60.983,0.664
59552,255.0,62.422,0.691
59585,255.0,64.227,0.724
59619,255.0,65.953,0.744
59652,255.0,67.333,0.757
59685,255.0,69.067,0.782
59719,255.0,70.427,0.801
59752,255.0,71.403,0.804
59785,255.0,72.351,0.814
59819,255.0,73.425,0.831
59852,255.0,70.091,0.72
59885,255.0,61.876,0.605
59918,255.0,55.492,0.546
59952,255.0,53.858,0.541
59985,255.0,55.359,0.582
60018,255.0,57.083,0.604
60052,255.0,59.069,0.647
60085,255.0,60.752,0.688
60118,255.0,61.288,0.681
60152,255.0,61.239,0.662
60185,255.0,61.148,0.662
60218,255.0,61.605,0.674
60252,255.0,62.763,0.701
60285,255.0,64.317,0.727
60318,255.0,65.968,0.731
60351,255.0,67.926,0.792
60385,255.0,68.7,0.783
60418,255.0,70.043,0.807
60451,255.0,71.095,0.812
60485,255.0,72.012,0.844
60518,255.0,72.65,0.837
60551,255.0,71.898,0.804
60585,255.0,65.521,0.662
60618,255.0,57.698,0.566
60651,255.0,54.086,0.533
60685,255.0,54.791,0.556
60718,255.0,56.521,0.588
60751,255.0,58.222,0.619
60784,255.0,60.058,0.66
60818,255.0,61.13,0.68
60851,255.0,61.113,0.66
60884,255.0,60.533,0.658
60918,255.0,60.649,0.669
60951,255.0,61.536,0.679
60984,255.0,62.702,0.693
61018,255.0,63.999,0.714
61051,255.0,65.22,0.738
61084,255.0,66.618,0.762
61118,255.0,67.647,0.776
61151,255.0,68.796,0.773
61184,255.0,69.508,0.781
61218,255.0,70.265,0.8
61251,255.0,70.485,0.809
61284,255.0,70.908,0.806
61317,255.0,68.301,0.702
61351,255.0,60.587,0.603
61384,255.0,53.904,0.523
61417,255.0,51.456,0.482
61451,255.0,52.479,0.505
61484,255.0,54.53,0.548
61517,255.0,56.644,0.622
61550,255.0,58.217,0.624
61584,255.0,58.62,0.625
61616,255.0,58.149,0.607
61650,255.0,57.602,0.59
61684,255.0,58.193,0.603
61717,255.0,59.335,0.598
61750,255.0,60.83,0.635
61784,255.0,62.367,0.667
61817,255.0,63.596,0.683
61850,255.0,64.459,0.683
61884,255.0,65.229,0.694
61917,255.0,66.302,0.711
61950,255.0,67.642,0.749
61983,255.0,66.535,0.687
62017,255.0,61.603,0.586
62050,255.0,54.186,0.496
62083,255.0,51.047,0.453
62116,255.0,51.863,0.477
62150,255.0,54.298,0.522
62183,255.0,56.947,0.587
62217,255.0,58.938,0.599
62250,255.0,60.364,0.614
62283,255.0,60.435,0.624
62317,255.0,59.484,0.584
62350,255.0,59.489,0.602
62383,255.0,60.533,0.629
62415,255.0,61.785,0.638
62450,255.0,63.333,0.658
62483,255.0,64.95,0.69
62516,255.0,66.477,0.706
62550,255.0,67.979,0.726
62583,255.0,68.42,0.721
62616,255.0,70.041,0.743
62650,255.0,70.578,0.721
62683,255.0,65.606,0.588
62716,255.0,57.636,0.512
62750,255.0,52.228,0.444
62783,255.0,51.657,0.425
62816,255.0,53.709,0.5
62849,255.0,56.117,0.538
62883,255.0,58.073,0.567
62915,255.0,59.026,0.583
62949,255.0,59.459,0.585
62983,255.0,59.368,0.576
63016,255.0,59.179,0.576
63049,255.0,59.333,0.583
63083,255.0,60.287,0.613
63116,255.0,62.006,0.637
63149,255.0,63.54,0.637
63182,255.0,64.917,0.665
63216,255.0,66.205,0.691
63249,255.0,67.413,0.682
63282,255.0,69.054,0.703
63316,255.0,69.041,0.698
63349,255.0,62.973,0.572
63382,255.0,54.899,0.458
63415,255.0,50.619,0.406
63449,255.0,51.097,0.421
63482,255.0,53.228,0.483
63516,255.0,55.047,0.5
63549,255.0,56.824,0.537
63582,255.0,58.071,0.563
63615,255.0,58.488,0.549
63649,255.0,58.078,0.539
63682,255.0,57.472,0.561
63715,255.0,57.859,0.568
63749,255.0,58.686,0.567
63782,255.0,59.626,0.588
63815,255.0,60.68,0.612
63849,255.0,61.462,0.612
63882,255.0,62.079,0.618
63915,255.0,62.54,0.613
63949,255.0,62.797,0.629
63982,255.0,63.038,0.628
64015,255.0,63.422,0.649
64048,255.0,60.269,0.526
64082,255.0,53.357,0.453
64115,255.0,47.306,0.373
64148,255.0,45.454,0.348
64182,255.0,46.842,0.378
64215,255.0,48.945,0.394
64248,255.0,51.02,0.449
64282,255.0,51.951,0.452
64315,255.0,52.127,0.444
64348,255.0,52.071,0.452
64382,255.0,51.309,0.427
64415,255.0,51.445,0.436
64448,255.0,52.555,0.456
64481,255.0,53.969,0.484
64515,255.0,55.603,0.514
64548,255.0,56.405,0.506
64581,255.0,57.661,0.529
64615,255.0,58.944,0.549
64648,255.0,59.672,0.54
64681,255.0,60.557,0.548
64715,255.0,60.746,0.533
64748,255.0,56.616,0.436
64781,255.0,50.134,0.357
64815,255.0,46.832,0.305
64848,255.0,47.664,0.33
64881,255.0,50.207,0.37
64914,255.0,52.973,0.407
64948,255.0,55.044,0.431
64981,255.0,56.201,0.456
65014,255.0,56.483,0.464
65048,255.0,55.853,0.436
65081,255.0,55.754,0.428
65114,255.0,56.871,0.47
65148,255.0,58.335,0.489
65181,255.0,60.017,0.507
65214,255.0,61.58,0.53
65247,255.0,62.948,0.551
65281,255.0,64.195,0.553
65314,255.0,65.23,0.578
65347,255.0,66.333,0.585
65381,255.0,67.264,0.589
65414,255.0,67.622,0.564
65447,255.0,62.896,0.466
65481,255.0,55.217,0.372
65514,255.0,50.324,0.31
65547,255.0,50.516,0.311
65581,255.0,52.49,0.358
65614,255.0,54.482,0.391
65647,255.0,56.104,0.417
65680,255.0,57.297,0.447
65714,255.0,57.853,0.456
65747,255.0,57.547,0.436
65780,255.0,57.276,0.42
65814,255.0,58.186,0.454
65847,255.0,59.693,0.457
65880,255.0,61.567,0.493
65914,255.0,62.987,0.504
65947,255.0,64.127,0.526
65980,255.0,65.181,0.525
66014,255.0,66.218,0.533
66047,255.0,67.312,0.55
66080,255.0,68.411,0.551
66113,255.0,66.313,0.486
66147,255.0,59.179,0.371
66180,255.0,51.648,0.284
66213,255.0,49.463,0.278
66247,255.0,50.708,0.299
66280,255.0,52.518,0.326
66313,255.0,54.033,0.342
66347,255.0,55.563,0.386
66380,255.0,56.134,0.363
66413,255.0,55.883,0.379
66447,255.0,55.184,0.359
66480,255.0,55.388,0.376
66513,255.0,56.088,0.373
66546,255.0,57.377,0.39
66580,255.0,58.535,0.414
66613,255.0,59.919,0.445
66646,255.0,60.886,0.446
66680,255.0,61.285,0.441
66713,255.0,61.42,0.445
66746,255.0,62.037,0.465
66780,255.0,62.952,0.463
66813,255.0,63.037,0.465
66846,255.0,59.335,0.378
66880,255.0,52.023,0.285
66913,255.0,46.824,0.245
66946,255.0,46.445,0.247
66979,255.0,48.537,0.266
67013,255.0,50.7,0.305
67046,255.0,52.808,0.337
67078,255.0,53.726,0.338
67113,255.0,54.189,0.337
67146,255.0,53.865,0.332
67179,255.0,53.449,0.321
67213,255.0,53.988,0.331
67246,255.0,55.464,0.362
67279,255.0,57.316,0.39
67312,255.0,58.764,0.408
67346,255.0,59.443,0.414
67379,255.0,60.643,0.419
67412,255.0,62.221,0.442
67446,255.0,63.126,0.441
67479,255.0,60.509,0.368
67512,255.0,53.667,0.277
67546,255.0,48.261,0.225
67578,255.0,47.516,0.235
67612,255.0,49.444,0.249
67646,255.0,51.787,0.278
67679,255.0,53.998,0.315
67712,255.0,55.578,0.339
67745,255.0,56.148,0.348
67779,255.0,55.875,0.336
67812,255.0,55.395,0.323
67845,255.0,55.984,0.349
67879,255.0,57.349,0.366
67912,255.0,58.765,0.388
67945,255.0,60.249,0.401
67979,255.0,61.706,0.426
68012,255.0,62.993,0.426
68045,255.0,64.071,0.442
68078,255.0,64.464,0.44
68112,255.0,65.229,0.449
68145,255.0,66.379,0.47
68178,255.0,66.689,0.457
68212,255.0,63.88,0.392
68245,255.0,55.985,0.293
68278,255.0,48.91,0.24
68312,255.0,47.128,0.216
68345,255.0,48.633,0.25
68377,255.0,50.175,0.258
68412,255.0,51.506,0.282
68445,255.0,52.95,0.306
68478,255.0,53.741,0.315
68512,255.0,53.758,0.299
68545,255.0,53.62,0.3
68578,255.0,54.396,0.315
68611,255.0,55.581,0.346
68645,255.0,56.825,0.363
68678,255.0,58.2,0.368
68711,255.0,59.576,0.396
68745,255.0,60.873,0.4
68778,255.0,61.616,0.407
68811,255.0,62.276,0.402
68845,255.0,63.325,0.431
68877,255.0,64.222,0.441
68911,255.0,61.055,0.353
68944,255.0,53.283,0.263
68978,255.0,47.433,0.225
69011,255.0,45.882,0.203
69044,255.0,46.878,0.22
69078,255.0,48.555,0.248
69111,255.0,50.481,0.275
69144,255.0,51.541,0.285
69178,255.0,51.764,0.279
69211,255.0,51.74,0.269
69244,255.0,51.233,0.261
69278,255.0,51.198,0.267
69311,255.0,52.043,0.286
69344,255.0,53.603,0.316
69377,255.0,54.95,0.326
69411,255.0,55.905,0.34
69444,255.0,56.615,0.351
69477,255.0,57.496,0.359
