time,R,G,B
0,165.606,44.459,22.006
33,165.616,44.273,21.78
67,165.432,43.88,21.495
100,164.997,43.492,21.292
133,164.395,43.113,21.154
167,164.0,42.966,21.167
200,163.769,42.819,21.167
233,148.623,33.081,15.122
267,147.807,32.321,14.697
300,147.766,32.138,14.654
333,147.82,32.109,14.593
367,147.907,32.229,14.655
400,147.975,32.344,14.702
433,147.999,32.405,14.743
467,148.066,32.479,14.756
500,148.329,32.791,14.905
533,148.591,33.103,15.049
567,148.769,33.303,15.143
600,148.897,33.339,15.125
633,149.088,33.405,15.134
666,149.302,33.626,15.259
700,149.736,33.956,15.403
733,149.964,34.191,15.484
766,150.102,34.36,15.547
800,150.274,34.443,15.544
833,150.174,34.352,15.446
866,149.709,34.086,15.256
900,149.116,33.821,15.145
933,148.451,33.341,14.872
966,148.242,33.239,14.913
1000,148.247,33.313,15.039
1033,148.307,33.417,15.148
1066,148.19,33.228,15.025
1100,148.059,32.951,14.866
1133,148.019,32.768,14.761
1166,147.829,32.463,14.572
1200,147.847,32.415,14.594
1233,148.067,32.62,14.765
1266,148.355,32.875,14.925
1300,148.541,33.017,14.969
1333,148.817,33.224,15.067
1366,148.852,33.151,14.978
1399,148.927,33.095,14.909
1433,149.105,33.15,14.938
1466,149.134,33.041,14.845
1499,149.231,33.014,14.819
1533,149.297,32.984,14.781
1566,149.312,32.893,14.706
1599,149.077,32.652,14.534
1633,148.425,32.193,14.278
1666,147.675,31.649,14.011
1699,147.264,31.417,13.999
1733,147.099,31.343,14.077
1766,147.064,31.343,14.148
1799,147.065,31.295,14.152
1833,147.005,31.173,14.116
1866,147.133,31.268,14.206
1899,147.252,31.385,14.279
1933,147.224,31.376,14.253
1966,147.246,31.41,14.274
1999,147.468,31.632,14.404
2032,147.544,31.689,14.406
2066,147.607,31.697,14.387
2099,147.717,31.712,14.373
2132,147.7,31.595,14.262
2166,147.812,31.61,14.274
2199,147.92,31.645,14.277
2232,148.127,31.802,14.373
2266,148.305,31.904,14.399
2299,148.442,31.983,14.422
2332,148.637,32.104,14.466
2366,148.476,31.93,14.301
2399,147.883,31.491,14.017
2432,147.103,30.947,13.728
2466,146.518,30.583,13.629
2499,146.231,30.396,13.614
2532,146.109,30.307,13.651
2566,146.044,30.211,13.642
2599,145.998,30.108,13.618
2632,146.032,30.091,13.639
2665,146.116,30.119,13.662
2699,146.183,30.154,13.71
2732,146.239,30.204,13.727
2764,146.354,30.323,13.815
2799,146.436,30.41,13.855
2832,146.575,30.544,13.914
2865,146.555,30.395,13.791
2899,146.498,30.219,13.643
2932,146.57,30.168,13.606
2965,146.702,30.191,13.611
2999,146.783,30.151,13.593
3032,146.834,30.102,13.543
3065,146.997,30.158,13.592
3099,147.072,30.15,13.56
3132,147.089,30.097,13.492
3165,146.898,29.907,13.365
3199,146.135,29.348,13.015
3232,145.476,28.95,12.849
3264,145.274,28.934,12.963
3298,145.218,28.968,13.069
3332,145.163,28.957,13.11
3365,145.236,29.052,13.204
3398,145.221,29.035,13.184
3432,145.317,29.116,13.263
3465,145.287,29.081,13.233
3498,145.159,28.966,13.121
3532,145.112,28.899,13.095
3565,145.145,28.939,13.15
3598,145.288,29.04,13.208
3632,145.416,29.118,13.235
3665,145.507,29.167,13.262
3698,145.653,29.273,13.312
3732,145.773,29.349,13.341
3764,145.833,29.391,13.337
3798,146.061,29.613,13.453
3832,146.213,29.753,13.51
3865,146.33,29.869,13.541
3898,146.289,29.754,13.426
3931,146.033,29.467,13.247
3965,145.384,28.997,12.939
3998,144.745,28.611,12.766
4031,144.445,28.508,12.822
4065,144.403,28.637,12.984
4098,144.468,28.767,13.097
4131,144.541,28.913,13.223
4165,144.576,28.988,13.254
4198,144.687,29.109,13.32
4231,144.495,28.934,13.157
4264,144.367,28.844,13.113
4298,144.339,28.852,13.145
4331,144.339,28.859,13.148
4365,144.372,28.883,13.176
4398,144.539,29.024,13.271
4431,144.589,29.078,13.271
4465,144.676,29.184,13.327
4498,144.753,29.227,13.331
4531,144.776,29.205,13.297
4564,144.868,29.271,13.324
4598,144.976,29.359,13.351
4631,144.94,29.292,13.29
4664,144.746,29.125,13.171
4698,144.135,28.714,12.914
4731,143.485,28.365,12.759
4764,143.141,28.249,12.787
4798,143.028,28.265,12.902
4831,142.953,28.263,12.938
4864,142.884,28.238,12.96
4898,143.046,28.374,13.057
4931,143.098,28.423,13.094
4964,143.081,28.397,13.074
4998,142.984,28.317,13.018
5031,142.964,28.32,13.015
5064,142.911,28.275,12.997
5098,142.981,28.312,13.034
5131,143.053,28.339,13.044
5164,143.168,28.365,13.042
5197,143.184,28.318,12.991
5231,143.194,28.263,12.931
5264,143.294,28.29,12.955
5297,143.398,28.355,12.989
5331,143.426,28.317,12.948
5364,143.519,28.389,12.982
5397,143.7,28.494,13.046
5431,143.561,28.369,12.934
5464,142.966,27.96,12.665
5496,142.236,27.554,12.467
5531,141.789,27.358,12.449
5564,141.65,27.373,12.566
5597,141.554,27.342,12.59
5631,141.515,27.337,12.636
5664,141.483,27.35,12.681
5697,141.569,27.45,12.746
5731,141.537,27.439,12.737
5764,141.427,27.347,12.68
5797,141.383,27.335,12.684
5831,141.239,27.192,12.595
5864,141.174,27.072,12.517
5897,141.298,27.123,12.585
5930,141.572,27.311,12.713
5964,141.696,27.354,12.715
5996,141.753,27.361,12.691
6030,141.831,27.417,12.701
6064,141.969,27.518,12.757
6097,142.061,27.577,12.77
6130,142.135,27.607,12.764
6164,142.235,27.666,12.776
6197,142.331,27.721,12.8
6230,142.094,27.523,12.647
6264,141.439,27.08,12.372
6297,140.688,26.662,12.164
6330,140.317,26.584,12.24
6364,140.194,26.627,12.334
6397,140.113,26.621,12.374
6430,139.987,26.528,12.365
6464,140.031,26.565,12.422
6496,140.109,26.637,12.465
6530,140.123,26.665,12.485
6563,140.112,26.663,12.502
6597,140.134,26.698,12.519
6630,140.205,26.762,12.557
6663,140.234,26.785,12.558
6697,140.278,26.798,12.558
6730,140.459,26.909,12.62
6763,140.509,26.92,12.6
6797,140.649,27.035,12.653
6830,140.789,27.121,12.708
6863,140.867,27.174,12.705
6897,140.945,27.231,12.735
6930,141.003,27.268,12.732
6963,140.967,27.17,12.635
6996,141.056,27.183,12.631
7030,141.016,27.064,12.538
7063,140.611,26.718,12.309
7097,139.926,26.301,12.088
7130,139.355,26.02,11.979
7163,139.109,25.976,12.059
7196,139.077,26.015,12.163
7230,139.029,25.979,12.172
7263,139.093,26.005,12.212
7296,139.038,25.913,12.14
7330,139.042,25.857,12.119
7363,138.951,25.741,12.057
7396,138.831,25.639,11.986
7430,138.8,25.608,12.011
7463,138.761,25.557,11.977
7496,138.855,25.6,12.0
7530,138.988,25.682,12.067
7563,139.145,25.743,12.076
7596,139.241,25.775,12.088
7630,139.29,25.794,12.07
7663,139.375,25.802,12.066
7696,139.5,25.867,12.104
7730,139.603,25.947,12.143
7763,139.743,26.057,12.191
7796,139.836,26.131,12.22
7829,139.57,25.953,12.079
7863,138.871,25.524,11.797
7896,138.378,25.339,11.758
7929,138.186,25.345,11.847
7963,138.175,25.414,11.96
7996,138.246,25.521,12.04
8029,138.344,25.601,12.096
8063,138.456,25.666,12.139
8096,138.515,25.703,12.143
8129,138.476,25.672,12.111
8163,138.417,25.622,12.075
8196,138.45,25.657,12.1
8228,138.538,25.711,12.125
8263,138.652,25.796,12.165
8296,138.849,25.921,12.228
8329,138.937,25.932,12.212
8363,139.067,25.993,12.228
8396,139.154,26.016,12.224
8429,139.287,26.077,12.238
8462,139.384,26.131,12.237
8496,139.48,26.174,12.252
8529,139.608,26.282,12.313
8562,139.763,26.391,12.355
8596,139.685,26.291,12.255
8629,139.102,25.865,11.955
8662,138.393,25.479,11.774
8696,137.929,25.309,11.763
8728,137.815,25.356,11.882
8762,137.72,25.343,11.912
8796,137.777,25.4,12.016
8829,137.715,25.354,11.985
8862,137.733,25.365,12.004
8896,137.776,25.365,12.003
8929,137.734,25.313,11.96
8962,137.735,25.324,11.991
8996,137.797,25.393,12.033
9029,137.838,25.42,12.026
9062,137.963,25.476,12.078
9095,138.148,25.607,12.145
9129,138.267,25.675,12.154
9162,138.337,25.68,12.116
9195,138.425,25.719,12.133
9228,138.524,25.754,12.143
9262,138.629,25.804,12.158
9295,138.691,25.819,12.155
9329,138.806,25.879,12.167
9362,138.843,25.861,12.149
9395,138.655,25.708,12.025
9429,137.924,25.196,11.683
9462,137.279,24.873,11.573
9495,136.926,24.759,11.606
9529,136.801,24.769,11.676
9562,136.808,24.819,11.769
9595,136.758,24.793,11.776
9629,136.749,24.799,11.792
9662,136.862,24.887,11.865
9695,136.937,24.945,11.902
9728,136.912,24.926,11.868
9762,136.857,24.885,11.843
9795,136.881,24.92,11.863
9828,137.057,25.074,11.966
9862,137.194,25.192,12.025
9895,137.344,25.296,12.067
9928,137.45,25.363,12.072
9962,137.619,25.48,12.117
9995,137.784,25.557,12.149
10028,137.833,25.587,12.131
10062,137.885,25.609,12.133
10095,137.988,25.659,12.14
10128,138.106,25.704,12.156
10162,138.177,25.701,12.129
10195,138.146,25.599,12.061
10228,137.693,25.275,11.83
10262,136.916,24.826,11.577
10295,136.482,24.681,11.562
10328,136.355,24.718,11.697
10362,136.317,24.74,11.767
10395,136.328,24.803,11.837
10428,136.382,24.837,11.868
10460,136.416,24.872,11.885
10495,136.462,24.897,11.888
10528,136.436,24.874,11.874
10561,136.469,24.903,11.901
10595,136.56,24.951,11.941
10628,136.627,24.992,11.959
10661,136.79,25.077,12.02
10695,136.908,25.113,12.023
10728,136.907,25.045,11.948
10761,136.961,25.036,11.915
10795,137.039,25.06,11.92
10828,137.122,25.109,11.941
10861,137.211,25.167,11.969
10895,137.233,25.139,11.945
10928,137.288,25.118,11.909
10960,137.277,25.079,11.877
10995,136.998,24.855,11.719
11028,136.333,24.443,11.487
11061,135.841,24.248,11.43
11094,135.671,24.258,11.53
11128,135.707,24.378,11.663
11161,135.837,24.535,11.787
11194,135.962,24.657,11.846
11228,136.047,24.716,11.866
11261,136.108,24.752,11.878
11294,136.048,24.684,11.822
11328,136.025,24.678,11.833
11361,136.113,24.74,11.871
11394,136.241,24.82,11.914
11428,136.416,24.913,11.968
11460,136.477,24.913,11.948
11494,136.627,24.974,11.955
11528,136.869,25.12,12.034
11561,137.007,25.183,12.044
11594,137.16,25.252,12.069
11628,137.23,25.26,12.043
11661,137.299,25.258,12.01
11694,137.405,25.298,12.027
11727,137.373,25.248,11.982
11761,136.864,24.872,11.717
11794,136.224,24.511,11.544
11827,135.763,24.329,11.502
11861,135.676,24.387,11.634
11894,135.668,24.471,11.724
11927,135.688,24.511,11.768
11960,135.854,24.668,11.883
11994,136.048,24.821,11.982
12027,136.089,24.842,11.956
12061,136.088,24.85,11.957
12094,136.096,24.878,11.947
12127,136.158,24.934,11.983
12161,136.281,25.014,12.02
12194,136.471,25.149,12.094
12227,136.639,25.238,12.134
12261,136.816,25.338,12.168
12294,137.003,25.468,12.22
12327,137.192,25.595,12.26
12360,137.204,25.562,12.196
12394,137.308,25.635,12.235
12427,137.387,25.665,12.225
12460,137.471,25.718,12.241
12494,137.545,25.75,12.241
12527,137.469,25.643,12.141
12560,136.935,25.263,11.876
12594,136.141,24.778,11.62
12627,135.725,24.645,11.635
12660,135.635,24.703,11.762
12694,135.666,24.772,11.861
12727,135.698,24.804,11.904
12760,135.796,24.872,11.971
12794,135.785,24.836,11.927
12827,135.878,24.88,11.966
12860,135.892,24.883,11.957
12894,135.851,24.813,11.895
12927,135.9,24.831,11.924
12960,136.022,24.899,11.966
12993,136.243,25.024,12.05
13027,136.419,25.098,12.07
13060,136.531,25.108,12.047
13093,136.561,25.058,11.998
13127,136.621,25.042,11.968
13160,136.696,25.048,11.975
13193,136.827,25.126,12.011
13227,137.017,25.238,12.067
13260,137.131,25.277,12.068
13293,137.219,25.318,12.063
13327,137.35,25.389,12.076
13360,137.214,25.225,11.947
13393,136.655,24.806,11.675
13427,135.894,24.346,11.427
13460,135.41,24.14,11.382
13493,135.336,24.177,11.504
13527,135.332,24.193,11.585
13560,135.322,24.178,11.607
13593,135.476,24.29,11.702
13627,135.689,24.453,11.799
13660,135.76,24.534,11.829
13693,135.761,24.52,11.799
13726,135.728,24.518,11.781
13760,135.831,24.607,11.848
13793,135.945,24.687,11.875
13826,136.127,24.802,11.945
13860,136.285,24.899,11.979
13893,136.472,25.046,12.043
13926,136.729,25.247,12.139
13960,136.807,25.303,12.139
13993,136.975,25.426,12.177
14026,137.061,25.46,12.166
14060,137.107,25.527,12.195
14093,137.244,25.644,12.25
14126,137.392,25.753,12.299
14160,137.509,25.805,12.293
14193,137.646,25.892,12.336
14226,137.51,25.761,12.21
14260,136.801,25.269,11.879
14293,136.044,24.832,11.645
14326,135.639,24.705,11.653
14359,135.591,24.765,11.776
14393,135.615,24.797,11.865
14426,135.576,24.74,11.837
14459,135.608,24.699,11.847
14493,135.804,24.823,11.917
14526,135.772,24.75,11.875
14559,135.742,24.718,11.855
14593,135.787,24.752,11.877
14626,135.906,24.832,11.93
14659,136.187,25.066,12.081
14693,136.374,25.22,12.145
14726,136.527,25.291,12.145
14759,136.549,25.236,12.072
14793,136.582,25.185,12.027
14826,136.618,25.153,11.982
14859,136.692,25.187,12.002
14893,136.693,25.187,11.98
14926,136.763,25.217,11.999
14959,136.863,25.297,12.035
14992,137.057,25.435,12.099
15026,137.217,25.537,12.146
15059,137.172,25.463,12.082
15092,136.667,25.079,11.801
15126,135.945,24.638,11.546
15159,135.527,24.489,11.537
15192,135.437,24.503,11.63
15226,135.562,24.624,11.772
15259,135.719,24.753,11.88
15292,135.793,24.808,11.899
15326,136.0,24.985,12.02
15359,136.06,25.011,11.987
15392,136.017,24.982,11.949
15426,136.047,25.043,11.989
15459,136.078,25.058,11.985
15492,136.232,25.178,12.067
15526,136.479,25.376,12.18
15559,136.556,25.403,12.163
15592,136.734,25.531,12.217
15625,136.853,25.55,12.203
15659,136.982,25.603,12.214
15692,137.045,25.594,12.173
15725,137.123,25.603,12.168
15759,137.193,25.624,12.176
15792,137.325,25.685,12.2
15825,137.367,25.67,12.154
15859,137.437,25.67,12.131
15892,136.985,25.303,11.848
15925,136.1,24.73,11.5
15959,135.543,24.497,11.467
15992,135.287,24.419,11.527
16025,135.284,24.493,11.647
16059,135.311,24.502,11.706
16092,135.287,24.46,11.688
16125,135.329,24.47,11.715
16159,135.298,24.412,11.686
16192,135.272,24.35,11.63
16225,135.353,24.401,11.683
16258,135.393,24.412,11.705
16292,135.396,24.398,11.682
16325,135.553,24.497,11.73
16358,135.73,24.567,11.775
16392,135.816,24.562,11.742
16425,135.997,24.634,11.764
16458,136.022,24.599,11.713
16492,136.142,24.638,11.72
16525,136.207,24.648,11.726
16558,136.364,24.752,11.77
16592,136.442,24.782,11.767
16625,136.59,24.896,11.825
16658,136.696,24.924,11.816
16692,136.75,24.938,11.813
16725,136.117,24.479,11.483
16758,135.272,23.971,11.189
16792,134.746,23.784,11.184
16825,134.541,23.77,11.264
16858,134.553,23.862,11.407
16892,134.592,23.905,11.467
16925,134.538,23.844,11.443
16958,134.587,23.847,11.46
16991,134.667,23.892,11.499
17025,134.658,23.858,11.464
17058,134.636,23.857,11.466
17091,134.669,23.899,11.485
17125,134.773,23.954,11.521
17158,134.938,24.027,11.56
17191,135.04,24.041,11.557
17225,135.195,24.11,11.585
17258,135.371,24.21,11.616
17291,135.501,24.274,11.635
17325,135.556,24.279,11.623
17358,135.624,24.292,11.617
17391,135.673,24.323,11.613
17425,135.767,24.363,11.625
17458,135.986,24.504,11.693
17491,136.141,24.596,11.731
17525,136.154,24.538,11.671
17558,135.778,24.23,11.44
17591,134.867,23.65,11.073
17624,134.259,23.408,11.018
17658,133.952,23.348,11.081
17691,133.964,23.469,11.248
17724,133.991,23.502,11.294
17758,133.928,23.46,11.304
17791,134.041,23.535,11.358
17824,134.212,23.656,11.435
17858,134.19,23.641,11.409
17891,134.188,23.677,11.441
17924,134.261,23.757,11.488
17958,134.344,23.848,11.533
17991,134.428,23.907,11.542
18024,134.646,24.073,11.647
18058,134.873,24.236,11.72
18091,134.946,24.243,11.698
18124,135.055,24.302,11.709
18158,135.209,24.374,11.732
18191,135.313,24.426,11.743
18224,135.374,24.47,11.755
18257,135.514,24.574,11.808
18291,135.599,24.648,11.808
18324,135.651,24.657,11.784
18357,135.699,24.648,11.776
18391,135.189,24.27,11.505
18424,134.423,23.838,11.266
18457,133.949,23.673,11.244
18491,133.768,23.684,11.354
18524,133.836,23.807,11.473
18557,133.862,23.806,11.505
18591,133.844,23.783,11.513
18624,134.002,23.893,11.575
18657,134.029,23.9,11.565
18691,133.894,23.765,11.475
18724,133.855,23.762,11.474
18757,133.89,23.787,11.493
18791,134.024,23.86,11.541
18824,134.179,23.933,11.579
18857,134.249,23.916,11.55
18889,134.468,24.045,11.611
18924,134.55,24.037,11.557
18957,134.652,24.064,11.564
18990,134.722,24.079,11.557
19024,134.851,24.146,11.594
19057,135.005,24.234,11.621
19090,135.179,24.312,11.653
19124,135.142,24.24,11.586
19157,134.805,23.984,11.412
19190,133.999,23.455,11.079
19224,133.419,23.186,10.979
19257,133.2,23.153,11.067
19290,133.138,23.174,11.145
19324,133.126,23.181,11.183
19357,133.173,23.216,11.221
19389,133.303,23.28,11.273
19424,133.397,23.302,11.278
19457,133.331,23.228,11.205
19490,133.272,23.174,11.175
19523,133.28,23.171,11.189
19557,133.4,23.238,11.229
19590,133.51,23.323,11.274
19623,133.686,23.426,11.322
19657,133.868,23.538,11.383
19690,133.978,23.551,11.351
19723,134.146,23.638,11.384
19757,134.206,23.653,11.371
19790,134.39,23.787,11.442
19823,134.569,23.939,11.517
19857,134.704,24.033,11.533
19889,134.824,24.105,11.56
19923,134.755,24.057,11.49
19957,134.127,23.627,11.195
19990,133.355,23.219,10.977
20023,132.819,22.985,10.903
20057,132.633,22.975,11.001
20090,132.634,23.032,11.097
20123,132.598,23.011,11.125
20156,132.655,23.056,11.168
20190,132.773,23.121,11.212
20223,132.83,23.13,11.217
20256,132.716,23.031,11.126
20290,132.727,23.024,11.138
20323,132.758,23.037,11.147
20356,132.873,23.084,11.186
20389,132.98,23.12,11.197
20423,133.148,23.226,11.257
20456,133.287,23.286,11.261
20490,133.507,23.406,11.337
20523,133.64,23.479,11.348
20556,133.747,23.548,11.367
20590,133.818,23.59,11.355
20623,133.957,23.691,11.397
20656,134.088,23.765,11.437
20690,134.272,23.873,11.481
20723,134.228,23.782,11.391
20756,133.674,23.398,11.137
20789,132.899,22.965,10.892
20823,132.406,22.752,10.835
20856,132.272,22.807,10.973
20889,132.232,22.816,11.023
20923,132.236,22.855,11.073
20956,132.32,22.918,11.13
20989,132.401,22.975,11.171
21023,132.492,23.017,11.205
21056,132.478,22.996,11.18
21089,132.456,22.999,11.18
21123,132.543,23.075,11.236
21156,132.626,23.1,11.244
21189,132.705,23.116,11.23
21223,132.796,23.123,11.219
21256,132.873,23.097,11.17
21289,132.99,23.128,11.19
21323,133.161,23.212,11.236
21356,133.301,23.328,11.298
21389,133.436,23.434,11.338
21423,133.513,23.5,11.335
21456,133.599,23.536,11.351
21489,133.726,23.599,11.375
21522,133.802,23.625,11.359
21556,133.639,23.491,11.266
21589,132.891,23.002,10.94
21621,132.238,22.671,10.781
21656,131.95,22.629,10.864
21689,131.891,22.689,10.971
21722,131.955,22.767,11.073
21756,132.038,22.873,11.148
21789,132.18,22.958,11.185
21822,132.326,23.06,11.248
21856,132.318,23.033,11.212
21889,132.284,23.04,11.203
21922,132.3,23.083,11.219
21956,132.4,23.158,11.262
21989,132.516,23.228,11.312
22022,132.63,23.274,11.309
22056,132.714,23.251,11.27
22089,132.817,23.267,11.27
22121,132.946,23.31,11.299
22155,132.997,23.286,11.254
22189,133.077,23.295,11.25
22222,133.206,23.367,11.296
22255,133.33,23.423,11.305
22289,133.466,23.495,11.318
22322,133.674,23.611,11.382
22355,133.571,23.471,11.256
22389,133.112,23.148,11.02
22422,132.348,22.697,10.762
22455,131.851,22.49,10.729
22489,131.725,22.534,10.87
22522,131.689,22.554,10.924
22555,131.662,22.548,10.948
22589,131.58,22.468,10.88
22621,131.666,22.493,10.923
22655,131.683,22.445,10.9
22689,131.717,22.449,10.907
22722,131.678,22.402,10.875
22755,131.68,22.383,10.879
22788,131.794,22.452,10.925
22822,131.936,22.511,10.957
22855,132.11,22.589,10.979
22888,132.506,22.888,11.163
22922,132.74,23.045,11.227
22955,133.071,23.335,11.371
22988,133.207,23.433,11.376
23022,133.398,23.557,11.431
23055,133.599,23.751,11.5
23088,133.916,24.065,11.677
23121,134.149,24.346,11.796
23155,134.298,24.539,11.85
23188,134.441,24.706,11.916
23222,134.087,24.549,11.769
23255,133.3,24.17,11.513
23288,132.691,23.986,11.458
23322,132.415,24.03,11.555
23355,132.438,24.247,11.746
23388,132.493,24.428,11.865
23421,132.584,24.622,12.014
23455,132.637,24.711,12.04
23488,132.753,24.808,12.092
23521,132.771,24.809,12.065
23555,132.835,24.85,12.089
23588,132.854,24.859,12.077
23621,133.026,24.971,12.161
23655,133.188,25.113,12.222
23688,133.364,25.227,12.275
23721,133.582,25.375,12.33
23755,133.688,25.435,12.333
23788,134.01,25.761,12.507
23821,134.305,26.081,12.69
23855,134.454,26.28,12.763
23888,134.391,26.233,12.669
23921,134.346,26.161,12.586
23955,134.417,26.2,12.61
23988,134.612,26.333,12.657
24021,134.667,26.287,12.614
24054,134.165,25.697,12.194
24088,133.229,24.856,11.678
24121,132.454,24.277,11.424
24154,132.286,24.232,11.555
24188,132.33,24.331,11.704
24221,132.513,24.562,11.921
24254,132.688,24.723,12.031
24288,132.776,24.804,12.086
24321,132.933,24.972,12.168
24353,133.07,25.19,12.289
24388,133.271,25.483,12.452
24421,133.398,25.744,12.583
24454,133.484,25.887,12.643
24488,133.555,25.936,12.63
24521,133.577,25.89,12.575
24554,133.858,26.062,12.688
24588,134.239,26.379,12.875
24621,134.494,26.638,12.995
24654,134.59,26.724,12.989
24688,134.702,26.8,13.036
24721,134.776,26.835,13.0
24754,134.934,26.949,13.064
24787,134.987,26.947,13.042
24821,134.968,26.91,12.988
24853,134.631,26.622,12.788
24887,133.87,26.069,12.443
24921,133.226,25.7,12.271
24954,133.047,25.672,12.373
24987,133.094,25.765,12.529
25021,133.132,25.787,12.569
25054,133.198,25.808,12.595
25087,133.272,25.792,12.587
25121,133.227,25.688,12.507
25154,133.103,25.548,12.428
25187,133.061,25.518,12.4
25221,133.045,25.501,12.402
25254,133.094,25.503,12.406
25287,133.155,25.449,12.356
25320,133.146,25.328,12.268
25353,133.27,25.322,12.27
25387,133.497,25.431,12.349
25420,133.51,25.33,12.248
25454,133.598,25.332,12.233
25487,133.814,25.433,12.297
25520,133.897,25.446,12.267
25554,134.083,25.547,12.32
25587,133.986,25.425,12.188
25620,133.405,25.031,11.936
25654,132.824,24.725,11.802
25687,132.452,24.555,11.766
25720,132.362,24.593,11.862
25754,132.416,24.68,11.961
25787,132.435,24.7,11.991
25820,132.571,24.821,12.066
25853,132.746,24.928,12.143
25887,132.896,25.009,12.169
25920,132.88,24.962,12.11
25954,132.86,24.915,12.069
25987,132.935,24.933,12.08
26020,133.097,25.006,12.117
26053,133.321,25.104,12.154
26087,133.512,25.168,12.173
26120,133.607,25.149,12.132
26153,133.769,25.175,12.125
26187,133.78,25.093,12.033
26220,133.943,25.162,12.064
26253,134.06,25.168,12.063
26287,134.205,25.212,12.061
26320,134.379,25.279,12.099
26353,134.274,25.122,11.954
26387,133.719,24.697,11.678
26420,133.067,24.272,11.45
26453,132.733,24.099,11.411
26487,132.748,24.142,11.543
26520,132.77,24.15,11.582
26553,132.873,24.192,11.627
26587,133.059,24.289,11.713
26620,133.185,24.329,11.713
26653,133.275,24.345,11.709
26686,133.305,24.322,11.693
26720,133.403,24.388,11.723
26753,133.538,24.459,11.756
26786,133.74,24.56,11.802
26820,133.997,24.719,11.888
26853,134.264,24.872,11.95
26886,134.459,24.95,11.958
26920,134.544,24.953,11.916
26953,134.678,24.987,11.904
26986,134.754,24.986,11.875
27020,134.96,25.106,11.934
27053,135.158,25.2,11.974
27085,135.349,25.299,12.002
27120,135.453,25.305,11.963
27153,135.14,25.04,11.777
27186,134.54,24.644,11.529
27220,134.146,24.439,11.455
27253,134.049,24.435,11.526
27286,134.08,24.452,11.582
27319,134.191,24.528,11.65
27353,134.286,24.538,11.649
27386,134.528,24.695,11.775
27419,134.635,24.748,11.767
27453,134.763,24.833,11.81
27486,134.844,24.894,11.827
27519,135.019,25.011,11.89
27553,135.196,25.133,11.941
27585,135.398,25.262,12.013
27619,135.544,25.351,12.036
27653,135.712,25.464,12.072
27686,135.831,25.521,12.062
27719,135.962,25.594,12.092
27753,136.086,25.668,12.113
27786,136.21,25.738,12.122
27819,136.322,25.796,12.148
27853,136.416,25.82,12.127
27886,136.577,25.873,12.165
27919,136.642,25.84,12.102
27952,136.377,25.595,11.936
27986,135.878,25.231,11.702
28019,135.535,25.051,11.669
28052,135.486,25.087,11.739
28085,135.525,25.127,11.807
28119,135.615,25.171,11.855
28152,135.725,25.228,11.888
28186,135.879,25.286,11.927
28219,135.992,25.339,11.937
28252,135.979,25.3,11.894
28286,136.099,25.4,11.965
28319,136.169,25.429,11.975
28352,136.245,25.475,12.001
28386,136.401,25.588,12.059
28419,136.593,25.723,12.114
28452,136.794,25.85,12.165
28486,136.902,25.892,12.163
28519,136.973,25.888,12.128
28552,137.108,25.938,12.144
28585,137.181,25.949,12.134
28619,137.283,25.99,12.13
28652,137.428,26.057,12.177
28685,137.488,26.024,12.108
28719,137.302,25.831,11.974
28752,136.805,25.473,11.741
28785,136.439,25.258,11.658
28819,136.252,25.169,11.658
28852,136.27,25.165,11.706
28885,136.379,25.178,11.743
28919,136.441,25.182,11.754
28952,136.565,25.218,11.783
28985,136.678,25.257,11.795
29019,136.739,25.245,11.776
29052,136.757,25.252,11.78
29085,136.814,25.28,11.798
29119,136.954,25.375,11.849
29152,137.055,25.416,11.857
29185,137.098,25.391,11.803
29218,137.256,25.49,11.882
29252,137.444,25.573,11.902
29285,137.531,25.595,11.892
29318,137.638,25.6,11.859
29352,137.687,25.597,11.851
29385,137.871,25.713,11.941
29418,137.951,25.744,11.925
29452,138.047,25.777,11.935
29485,138.194,25.882,11.988
29518,138.158,25.79,11.881
29552,137.676,25.417,11.617
29585,137.16,25.143,11.488
29618,136.869,25.021,11.487
29652,136.851,25.066,11.582
29685,136.905,25.121,11.653
29718,136.886,25.094,11.646
29752,136.89,25.09,11.664
29785,136.959,25.156,11.706
29818,137.049,25.209,11.748
29852,137.071,25.211,11.736
29885,137.112,25.233,11.745
29918,137.102,25.2,11.735
29951,137.153,25.22,11.74
29985,137.225,25.264,11.76
30018,137.427,25.395,11.83
30051,137.497,25.421,11.822
30085,137.551,25.426,11.798
30118,137.62,25.461,11.821
30151,137.68,25.481,11.809
30185,137.779,25.557,11.83
30218,137.787,25.544,11.81
30251,137.812,25.508,11.792
30285,137.933,25.6,11.84
30318,138.097,25.694,11.893
30351,138.177,25.728,11.889
30385,138.366,25.851,11.962
30418,138.308,25.751,11.871
30451,137.903,25.432,11.646
30485,137.202,24.977,11.371
30518,136.736,24.768,11.325
30551,136.601,24.754,11.406
30584,136.556,24.745,11.446
30618,136.553,24.759,11.513
30651,136.604,24.808,11.558
30684,136.675,24.866,11.604
30718,136.725,24.911,11.621
30751,136.664,24.866,11.602
30784,136.66,24.88,11.614
30818,136.686,24.919,11.644
30851,136.762,24.994,11.702
30884,136.823,25.039,11.731
30918,136.902,25.096,11.749
30951,137.007,25.172,11.797
30984,137.095,25.209,11.79
31018,137.145,25.26,11.81
31051,137.207,25.327,11.833
31084,137.265,25.359,11.838
31118,137.356,25.439,11.873
31151,137.438,25.512,11.911
31184,137.567,25.611,11.962
31217,137.639,25.669,11.976
31251,137.769,25.761,12.017
31284,137.898,25.858,12.076
31317,137.99,25.925,12.1
31351,137.95,25.873,12.04
31384,137.6,25.62,11.839
31417,136.857,25.156,11.573
31451,136.306,24.884,11.486
31484,136.06,24.833,11.54
31517,136.033,24.874,11.641
31551,136.041,24.881,11.678
31584,136.067,24.897,11.715
31617,136.102,24.911,11.731
31651,136.11,24.904,11.728
31684,135.986,24.828,11.678
31717,135.861,24.73,11.621
31751,135.848,24.752,11.684
31784,135.866,24.806,11.731
31817,136.014,24.927,11.803
31850,136.078,24.968,11.811
31884,136.145,25.025,11.832
31917,136.291,25.13,11.882
31950,136.365,25.2,11.908
31984,136.464,25.267,11.94
32017,136.503,25.303,11.93
32050,136.492,25.272,11.89
32084,136.467,25.245,11.856
32117,136.507,25.264,11.877
32150,136.619,25.349,11.92
32184,136.739,25.41,11.944
32217,136.788,25.4,11.911
32250,136.461,25.152,11.726
32284,135.803,24.743,11.483
32317,135.298,24.522,11.424
32350,135.16,24.559,11.523
32384,135.155,24.614,11.609
32417,135.153,24.642,11.67
32450,135.157,24.657,11.678
32483,135.278,24.742,11.743
32517,135.391,24.835,11.795
32550,135.375,24.807,11.767
32583,135.334,24.785,11.753
32617,135.288,24.759,11.741
32650,135.317,24.771,11.753
32683,135.43,24.851,11.801
32717,135.535,24.912,11.827
32750,135.659,24.97,11.842
32783,135.696,24.955,11.811
32817,135.808,25.016,11.831
32850,135.995,25.138,11.888
32883,136.071,25.182,11.905
32917,136.137,25.209,11.905
32950,136.129,25.195,11.868
32983,136.205,25.249,11.905
33017,136.306,25.334,11.945
33050,136.394,25.39,11.939
33083,136.526,25.487,11.987
33116,136.513,25.44,11.931
33150,136.014,25.091,11.7
33183,135.21,24.621,11.418
33216,134.611,24.328,11.305
33250,134.421,24.324,11.442
33283,134.343,24.324,11.5
33316,134.294,24.315,11.535
33350,134.335,24.353,11.59
33383,134.331,24.364,11.605
33416,134.385,24.393,11.625
33450,134.406,24.405,11.639
33483,134.312,24.359,11.605
33516,134.382,24.439,11.663
33550,134.458,24.505,11.702
33583,134.502,24.526,11.712
33616,134.654,24.618,11.756
33650,134.767,24.669,11.768
33683,134.798,24.664,11.738
33716,134.956,24.771,11.793
33750,134.972,24.753,11.782
33783,135.027,24.775,11.768
33816,135.085,24.782,11.742
33849,135.096,24.776,11.715
33883,135.181,24.826,11.75
33916,135.256,24.844,11.75
33949,135.397,24.936,11.802
33983,135.509,24.994,11.818
34016,135.53,24.972,11.789
34049,134.925,24.551,11.484
34083,134.104,24.075,11.208
34116,133.649,23.919,11.224
34149,133.455,23.932,11.314
34183,133.444,23.959,11.418
34216,133.411,23.948,11.414
34249,133.441,23.97,11.457
34283,133.509,23.986,11.479
34316,133.589,24.018,11.49
34349,133.612,24.02,11.513
34383,133.562,24.003,11.483
34416,133.601,24.043,11.512
34449,133.746,24.158,11.572
34482,133.785,24.152,11.541
34516,133.903,24.211,11.577
34549,134.104,24.312,11.624
34582,134.231,24.372,11.644
34616,134.322,24.399,11.647
34649,134.454,24.467,11.66
34682,134.53,24.501,11.647
34716,134.631,24.572,11.684
34749,134.759,24.673,11.731
34782,134.841,24.746,11.738
34816,134.952,24.832,11.792
34849,135.108,24.93,11.827
34882,135.092,24.897,11.767
34916,134.604,24.579,11.545
34949,133.834,24.122,11.278
34982,133.331,23.895,11.226
35016,133.166,23.928,11.361
35049,133.195,24.004,11.45
35082,133.197,24.035,11.487
35115,133.357,24.17,11.591
35149,133.482,24.231,11.621
35182,133.491,24.211,11.596
35215,133.409,24.141,11.533
35249,133.415,24.15,11.55
35282,133.489,24.224,11.605
35315,133.646,24.361,11.69
35349,133.766,24.496,11.744
35382,133.992,24.67,11.841
35415,134.183,24.82,11.904
35449,134.331,24.939,11.956
35482,134.464,25.062,11.986
35514,134.593,25.181,12.033
35549,134.736,25.309,12.096
35582,134.822,25.389,12.099
35615,134.967,25.52,12.168
35649,135.031,25.555,12.166
35682,134.779,25.385,12.021
35715,134.096,24.938,11.732
35748,133.441,24.565,11.555
35782,133.076,24.396,11.549
35815,132.946,24.322,11.574
35848,132.931,24.3,11.613
35882,132.997,24.327,11.628
35915,133.117,24.418,11.701
35948,133.192,24.477,11.732
35982,133.216,24.544,11.77
36014,133.125,24.533,11.758
36048,133.132,24.6,11.813
36082,133.222,24.712,11.876
36115,133.323,24.792,11.899
36148,133.505,24.921,11.976
36182,133.71,25.088,12.055
36215,133.767,25.135,12.04
36248,133.885,25.21,12.071
36282,133.97,25.27,12.101
36315,133.983,25.279,12.056
36348,134.11,25.375,12.121
36381,134.019,25.295,12.038
36415,133.289,24.694,11.613
36448,132.516,24.222,11.362
36481,132.026,24.032,11.342
36514,131.895,24.064,11.474
36548,131.932,24.173,11.618
36581,131.972,24.222,11.675
36615,132.035,24.269,11.703
36648,132.208,24.398,11.779
36681,132.248,24.441,11.788
36715,132.229,24.462,11.795
36748,132.268,24.527,11.851
36781,132.332,24.59,11.867
36815,132.34,24.586,11.854
36848,132.527,24.697,11.92
36881,132.681,24.788,11.955
36915,132.786,24.844,11.957
36948,132.936,24.928,12.003
36981,133.085,25.029,12.044
37014,133.186,25.078,12.035
37048,133.316,25.148,12.064
37081,133.407,25.196,12.06
37114,133.449,25.224,12.046
37148,133.184,25.062,11.938
37181,132.35,24.554,11.598
37214,131.72,24.259,11.49
37248,131.42,24.203,11.544
37281,131.352,24.245,11.651
37314,131.321,24.25,11.703
37348,131.35,24.283,11.759
37381,131.416,24.329,11.781
37414,131.544,24.383,11.823
37448,131.577,24.383,11.817
37481,131.545,24.339,11.753
37514,131.661,24.421,11.825
37548,131.762,24.478,11.847
37581,131.85,24.53,11.867
37614,132.039,24.632,11.917
37648,132.205,24.714,11.926
37681,132.369,24.755,11.931
37714,132.505,24.792,11.936
37746,132.623,24.819,11.931
37781,132.734,24.861,11.93
37814,132.88,24.931,11.971
37847,133.023,24.993,11.985
37881,133.156,25.04,11.983
37914,133.376,25.187,12.047
37947,133.468,25.215,12.032
37981,132.792,24.533,11.529
38014,132.014,23.994,11.262
38047,131.51,23.77,11.202
38081,131.23,23.673,11.237
38114,131.106,23.598,11.286
38147,130.847,23.333,11.135
38181,130.775,23.177,11.098
38214,130.766,23.098,11.073
38246,130.931,23.194,11.147
38281,131.101,23.296,11.234
38314,131.211,23.336,11.258
38347,131.34,23.415,11.286
38380,131.38,23.358,11.221
38414,131.457,23.328,11.187
38447,131.556,23.3,11.161
38480,131.751,23.387,11.197
38514,131.978,23.49,11.24
38547,132.206,23.622,11.321
38580,132.398,23.745,11.357
38614,132.504,23.774,11.329
38647,132.748,23.937,11.429
38680,132.961,24.08,11.476
38714,133.165,24.245,11.543
38746,133.289,24.306,11.523
38780,133.445,24.39,11.543
38814,133.624,24.496,11.582
38847,133.738,24.522,11.566
38880,133.734,24.449,11.473
38914,133.293,24.151,11.265
38947,132.482,23.685,11.002
38980,131.946,23.465,10.938
39013,131.825,23.493,11.051
39047,131.803,23.501,11.131
39080,131.841,23.564,11.197
39113,131.833,23.528,11.188
39147,131.866,23.509,11.193
39180,131.952,23.52,11.196
39213,131.956,23.476,11.155
39246,131.952,23.48,11.172
39280,132.122,23.62,11.258
39313,132.292,23.747,11.327
39347,132.531,23.923,11.428
39380,132.748,24.083,11.496
39413,132.928,24.17,11.512
39447,133.086,24.249,11.535
39480,133.237,24.319,11.541
39513,133.35,24.385,11.567
39547,133.454,24.43,11.557
39580,133.572,24.487,11.562
39613,133.741,24.566,11.602
39646,133.829,24.564,11.562
39680,133.93,24.577,11.555
39713,134.114,24.668,11.599
39746,134.283,24.729,11.616
39780,134.506,24.831,11.655
39813,134.405,24.727,11.552
39846,133.823,24.359,11.307
39880,133.109,24.017,11.124
39913,132.741,23.923,11.162
39946,132.605,23.952,11.263
39980,132.675,24.066,11.388
40013,132.626,24.035,11.378
40046,132.619,24.04,11.411
40080,132.745,24.124,11.487
40113,132.786,24.124,11.458
40146,132.817,24.133,11.471
40180,132.807,24.111,11.448
40213,132.843,24.118,11.454
40246,132.976,24.179,11.494
40279,133.094,24.216,11.487
40313,133.265,24.286,11.525
40346,133.454,24.406,11.581
40379,133.608,24.495,11.624
40413,133.784,24.608,11.673
40446,133.895,24.695,11.685
40478,134.091,24.87,11.778
40513,134.287,25.004,11.83
40546,134.304,24.992,11.775
40579,134.38,25.001,11.773
40613,134.481,25.041,11.778
40646,134.666,25.16,11.84
40679,134.896,25.336,11.907
40713,135.105,25.494,11.992
40746,135.142,25.523,11.97
40779,134.563,25.131,11.681
40813,133.714,24.612,11.375
40846,133.129,24.326,11.297
40879,132.933,24.278,11.366
40912,132.917,24.326,11.475
40946,133.021,24.442,11.605
40978,133.072,24.482,11.644
41012,133.21,24.599,11.701
41046,133.331,24.718,11.772
41079,133.358,24.746,11.765
41112,133.298,24.74,11.747
41146,133.288,24.77,11.772
41179,133.377,24.82,11.788
41212,133.473,24.865,11.813
41246,133.542,24.85,11.783
41279,133.641,24.869,11.777
41312,133.762,24.905,11.782
41346,133.919,24.959,11.798
41379,134.1,25.071,11.865
41412,134.145,25.098,11.856
41446,134.293,25.234,11.92
41478,134.36,25.286,11.924
41512,134.495,25.383,11.987
41545,134.566,25.431,11.979
41579,134.721,25.536,12.026
41612,134.859,25.629,12.072
41645,134.792,25.583,12.007
41679,134.158,25.151,11.707
41712,133.391,24.729,11.478
41745,133.071,24.667,11.543
41779,132.995,24.699,11.63
41812,133.09,24.799,11.756
41845,133.147,24.828,11.778
41879,133.243,24.87,11.813
41912,133.339,24.896,11.821
41945,133.371,24.902,11.81
41978,133.304,24.845,11.753
42012,133.258,24.822,11.749
42045,133.275,24.818,11.736
42079,133.365,24.858,11.757
42112,133.52,24.925,11.815
42145,133.656,24.988,11.833
42179,133.853,25.1,11.863
42212,134.034,25.191,11.911
42245,134.179,25.249,11.907
42278,134.226,25.24,11.877
42312,134.287,25.272,11.87
42345,134.398,25.355,11.913
42378,134.527,25.428,11.947
42412,134.606,25.452,11.92
42445,134.744,25.516,11.942
42478,134.711,25.462,11.889
42512,134.145,25.07,11.625
42545,133.37,24.63,11.386
42578,132.926,24.462,11.387
42612,132.809,24.456,11.458
42645,132.843,24.485,11.556
42678,132.879,24.488,11.564
42712,132.943,24.515,11.598
42745,133.14,24.689,11.729
42778,133.369,24.936,11.863
42812,133.379,25.005,11.883
42845,133.334,25.014,11.862
42878,133.282,24.941,11.8
42911,133.261,24.852,11.717
42945,133.323,24.821,11.705
42978,133.533,24.918,11.768
43011,133.783,25.063,11.857
43045,133.966,25.157,11.869
43078,134.062,25.159,11.861
43111,134.13,25.165,11.81
43145,134.248,25.235,11.873
43178,134.39,25.344,11.918
43210,134.543,25.412,11.945
43245,134.731,25.509,11.978
43278,134.813,25.535,11.967
43311,134.892,25.537,11.936
43345,134.602,25.273,11.755
43378,133.716,24.639,11.33
43411,133.055,24.288,11.227
43445,132.783,24.191,11.27
43478,132.732,24.204,11.369
43511,132.775,24.233,11.432
43544,132.773,24.218,11.452
43578,132.851,24.248,11.491
43611,132.992,24.308,11.535
43644,133.036,24.318,11.519
43678,133.066,24.325,11.531
43710,133.061,24.336,11.53
43744,133.117,24.378,11.551
43778,133.291,24.471,11.596
43811,133.429,24.527,11.612
43844,133.573,24.586,11.631
43878,133.778,24.687,11.678
43911,133.956,24.796,11.745
43944,134.006,24.765,11.678
43978,134.026,24.718,11.616
44011,134.139,24.735,11.635
44044,134.273,24.783,11.662
44078,134.401,24.809,11.657
44111,134.44,24.789,11.624
44144,134.563,24.827,11.621
44177,134.456,24.67,11.502
44210,133.888,24.252,11.232
44244,133.202,23.839,11.018
44277,132.829,23.716,11.035
44311,132.835,23.84,11.213
44344,132.913,23.919,11.279
44377,132.978,23.96,11.334
44411,133.036,23.956,11.349
44444,133.169,24.017,11.38
44477,133.241,24.041,11.39
44511,133.218,24.016,11.366
44544,133.251,24.041,11.379
44577,133.398,24.167,11.466
44611,133.583,24.291,11.528
44644,133.807,24.46,11.599
44677,133.959,24.548,11.641
44710,134.127,24.65,11.689
44744,134.313,24.779,11.726
44777,134.465,24.879,11.753
44810,134.566,24.943,11.762
44844,134.68,25.014,11.779
44877,134.788,25.091,11.808
44910,134.981,25.253,11.9
44944,135.205,25.41,11.966
44977,135.295,25.465,11.968
45010,135.044,25.224,11.778
45044,134.248,24.588,11.349
45077,133.685,24.234,11.213
45110,133.49,24.218,11.302
45144,133.564,24.353,11.46
45177,133.647,24.428,11.528
45210,133.715,24.458,11.559
45244,133.805,24.491,11.583
45277,133.911,24.513,11.59
45310,133.792,24.366,11.472
45344,133.675,24.203,11.363
45377,133.596,24.083,11.308
45410,133.782,24.182,11.407
45443,133.935,24.231,11.447
45477,134.07,24.272,11.453
45510,134.357,24.474,11.56
45543,134.526,24.591,11.615
45577,134.652,24.671,11.639
45610,134.778,24.771,11.68
45643,134.906,24.876,11.712
45677,135.017,24.988,11.767
45710,135.32,25.293,11.936
45743,135.533,25.528,12.049
45777,135.54,25.58,12.015
45810,135.129,25.326,11.816
45843,134.485,24.94,11.604
45877,134.203,24.901,11.632
45910,134.196,25.045,11.78
45943,134.338,25.251,11.94
45977,134.462,25.411,12.048
46010,134.664,25.621,12.176
46043,134.824,25.779,12.25
46077,134.984,25.972,12.344
46110,134.957,26.019,12.328
46143,134.942,26.057,12.35
46176,134.999,26.118,12.381
46210,135.105,26.186,12.418
46243,135.203,26.243,12.437
46276,135.293,26.302,12.459
46310,135.549,26.516,12.587
46343,135.71,26.641,12.617
46376,135.809,26.712,12.648
46410,135.84,26.724,12.638
46443,135.89,26.734,12.611
46476,135.957,26.739,12.604
46510,135.996,26.735,12.582
46543,136.172,26.838,12.645
46576,136.15,26.765,12.577
46610,135.763,26.466,12.37
46643,135.056,26.012,12.093
46676,134.614,25.802,12.035
46710,134.488,25.81,12.13
46743,134.486,25.841,12.213
46776,134.496,25.882,12.264
46809,134.54,25.894,12.287
46843,134.616,25.94,12.319
46876,134.621,25.929,12.315
46909,134.665,25.947,12.332
46943,134.673,25.931,12.318
46976,134.679,25.929,12.319
47009,134.711,25.898,12.287
47043,134.761,25.875,12.262
47076,134.849,25.856,12.261
47109,134.998,25.906,12.299
47143,135.178,25.989,12.347
47176,135.286,26.019,12.323
47209,135.375,26.044,12.348
47243,135.371,25.988,12.291
47276,135.485,26.047,12.31
47309,135.66,26.146,12.363
47343,135.795,26.204,12.389
47376,135.927,26.263,12.404
47409,135.922,26.227,12.36
47442,135.464,25.866,12.102
47476,134.766,25.424,11.837
47509,134.359,25.243,11.801
47542,134.231,25.216,11.887
47576,134.187,25.178,11.908
47609,134.27,25.197,11.964
47642,134.27,25.175,11.97
47676,134.382,25.222,12.002
47709,134.491,25.271,12.046
47742,134.533,25.273,12.034
47776,134.467,25.236,11.992
47809,134.525,25.278,12.019
47842,134.623,25.319,12.053
47876,134.723,25.323,12.042
47909,134.78,25.273,11.997
47942,134.919,25.302,12.001
47976,134.941,25.244,11.949
48009,135.056,25.277,11.965
48042,135.17,25.323,12.016
48075,135.28,25.357,12.006
48109,135.395,25.401,12.018
48142,135.501,25.442,12.026
48175,135.688,25.597,12.126
48209,135.889,25.746,12.208
48242,135.966,25.768,12.205
48275,135.794,25.623,12.047
48309,135.2,25.228,11.794
48342,134.542,24.829,11.57
48375,134.335,24.767,11.622
48409,134.217,24.707,11.645
48442,134.272,24.736,11.721
48475,134.285,24.724,11.726
48509,134.346,24.72,11.745
48542,134.412,24.71,11.745
48575,134.354,24.58,11.654
48609,134.275,24.463,11.59
48642,134.314,24.489,11.609
48675,134.411,24.548,11.656
48708,134.527,24.571,11.66
48742,134.573,24.535,11.624
48775,134.699,24.554,11.628
48808,134.819,24.603,11.658
48842,134.977,24.707,11.698
48875,135.198,24.93,11.848
48908,135.331,25.04,11.868
48942,135.411,25.089,11.861
48975,135.443,25.078,11.849
49008,135.59,25.182,11.903
49042,135.674,25.236,11.909
49075,135.678,25.211,11.873
49108,135.3,24.928,11.667
49142,134.711,24.541,11.455
49175,134.356,24.393,11.436
49208,134.333,24.483,11.577
49242,134.34,24.527,11.614
49275,134.36,24.516,11.629
49308,134.447,24.555,11.665
49341,134.473,24.521,11.638
49375,134.538,24.543,11.664
49408,134.544,24.528,11.663
49441,134.606,24.567,11.676
49475,134.642,24.565,11.674
49508,134.76,24.609,11.698
49541,134.831,24.607,11.677
49575,134.893,24.587,11.666
49608,134.978,24.592,11.645
49641,135.042,24.624,11.645
49675,135.267,24.773,11.738
49708,135.371,24.831,11.754
49741,135.467,24.902,11.784
49775,135.571,24.973,11.799
49808,135.581,24.955,11.749
49841,135.698,25.024,11.787
49875,135.727,24.987,11.743
49908,135.428,24.717,11.546
49941,134.705,24.245,11.26
49975,134.197,23.99,11.182
50008,133.86,23.835,11.176
50041,133.8,23.837,11.246
50074,133.806,23.869,11.322
50108,133.832,23.931,11.377
50141,133.977,24.096,11.493
50174,134.258,24.414,11.695
50208,134.306,24.491,11.694
50241,134.176,24.364,11.584
50274,133.893,24.012,11.347
50308,133.664,23.666,11.162
50341,133.824,23.72,11.249
50374,134.127,23.939,11.408
50408,134.626,24.437,11.738
50441,134.892,24.738,11.866
50474,135.008,24.881,11.887
50508,135.086,24.971,11.9
50541,135.076,24.966,11.861
50574,135.147,25.0,11.871
50608,135.073,24.912,11.791
50641,135.033,24.829,11.725
50674,135.097,24.837,11.734
50707,135.066,24.756,11.686
50741,134.778,24.559,11.542
50774,134.172,24.199,11.359
50807,133.618,23.927,11.247
50841,133.416,23.916,11.334
50874,133.372,23.93,11.399
50907,133.31,23.902,11.439
50941,133.265,23.863,11.423
50974,133.313,23.903,11.485
51007,133.359,23.904,11.499
51041,133.327,23.854,11.459
51074,133.245,23.79,11.402
51107,133.25,23.8,11.421
51141,133.367,23.895,11.487
51174,133.552,24.03,11.567
51207,133.718,24.121,11.601
51241,133.812,24.16,11.599
51274,133.934,24.229,11.629
51307,134.058,24.316,11.651
51340,134.185,24.417,11.689
51374,134.242,24.455,11.688
51407,134.306,24.504,11.7
51440,134.341,24.52,11.687
51474,134.474,24.609,11.721
51507,134.62,24.696,11.755
51540,134.799,24.788,11.805
51574,134.798,24.76,11.757
51607,134.352,24.441,11.514
51639,133.626,24.031,11.286
51674,133.245,23.893,11.282
51707,133.138,23.914,11.382
51740,133.165,23.971,11.471
51774,133.183,23.994,11.503
51807,133.22,24.025,11.542
51840,133.296,24.065,11.564
51874,133.418,24.131,11.612
51907,133.437,24.161,11.622
51940,133.479,24.223,11.632
51973,133.575,24.323,11.701
52007,133.702,24.419,11.747
52040,133.823,24.509,11.784
52073,133.981,24.608,11.824
52107,134.149,24.692,11.85
52139,134.289,24.769,11.854
52173,134.52,24.933,11.941
52207,134.679,25.06,11.992
52240,134.801,25.17,12.022
52273,134.922,25.273,12.062
52307,134.994,25.354,12.085
52340,135.116,25.45,12.114
52373,135.248,25.539,12.156
52407,135.402,25.634,12.181
52440,135.491,25.651,12.164
52473,135.302,25.476,12.027
52507,134.689,25.034,11.732
52540,134.089,24.729,11.601
52573,133.797,24.636,11.605
52606,133.812,24.745,11.763
52639,133.904,24.86,11.873
52673,134.009,24.978,11.96
52706,134.201,25.155,12.085
52740,134.362,25.318,12.159
52773,134.438,25.42,12.204
52806,134.406,25.436,12.188
52840,134.395,25.462,12.181
52873,134.456,25.536,12.215
52906,134.539,25.585,12.241
52940,134.663,25.664,12.276
52973,134.788,25.716,12.283
53006,134.882,25.761,12.285
53040,135.026,25.837,12.322
53073,135.095,25.861,12.304
53106,135.088,25.785,12.238
53139,135.062,25.727,12.179
53173,135.165,25.766,12.208
53206,135.361,25.872,12.271
53239,135.467,25.931,12.269
53273,135.661,26.062,12.344
53306,135.627,25.983,12.246
53339,135.275,25.676,12.02
53373,134.585,25.222,11.745
53406,134.131,25.043,11.712
53439,134.061,25.146,11.859
53473,134.197,25.372,12.056
53506,134.271,25.469,12.124
53539,134.28,25.5,12.111
53573,134.304,25.47,12.104
53606,134.315,25.418,12.072
53639,134.263,25.314,11.992
53673,134.184,25.224,11.922
53706,134.198,25.226,11.932
53739,134.292,25.28,11.987
53773,134.482,25.407,12.055
53806,134.69,25.541,12.097
53839,134.897,25.684,12.177
53871,135.052,25.794,12.205
53906,135.224,25.913,12.247
53939,135.283,25.942,12.229
53972,135.472,26.1,12.303
54006,135.552,26.132,12.287
54039,135.741,26.268,12.36
54072,135.825,26.325,12.368
54106,136.0,26.446,12.445
54139,136.126,26.545,12.474
54172,136.04,26.437,12.36
54206,135.44,26.023,12.079
54239,134.76,25.653,11.871
54272,134.309,25.498,11.859
54306,134.156,25.495,11.939
54339,134.122,25.499,11.998
54371,134.12,25.506,12.017
54406,134.118,25.502,12.055
54439,134.225,25.571,12.1
54472,134.305,25.624,12.122
54506,134.346,25.65,12.133
54539,134.328,25.662,12.128
54572,134.395,25.749,12.182
54605,134.523,25.85,12.236
54639,134.626,25.882,12.242
54672,134.776,25.949,12.259
54705,134.914,25.995,12.272
54739,135.03,26.02,12.275
54772,135.17,26.099,12.29
54805,135.284,26.18,12.33
54839,135.357,26.231,12.326
54871,135.435,26.249,12.327
54905,135.658,26.402,12.404
54939,135.755,26.442,12.406
54972,135.834,26.474,12.387
55005,135.934,26.5,12.405
55039,135.786,26.345,12.271
55072,135.195,25.933,12.007
55105,134.462,25.532,11.813
55139,134.081,25.408,11.833
55172,134.008,25.423,11.918
55205,133.982,25.416,11.958
55238,133.967,25.39,11.973
55272,133.934,25.339,11.952
55305,134.093,25.425,12.022
55338,134.084,25.383,11.977
55371,134.14,25.428,12.024
55405,134.226,25.499,12.066
55438,134.27,25.529,12.07
55472,134.426,25.666,12.154
55505,134.662,25.852,12.246
55538,134.876,26.006,12.324
55572,135.088,26.176,12.412
55605,135.241,26.291,12.441
55638,135.397,26.438,12.491
55672,135.542,26.545,12.532
55705,135.662,26.64,12.578
55738,135.762,26.717,12.61
55772,135.909,26.813,12.631
55805,135.929,26.781,12.583
55838,136.029,26.84,12.608
55871,136.128,26.873,12.6
55905,135.83,26.638,12.421
55938,135.109,26.208,12.149
55971,134.49,25.891,12.019
56005,134.328,25.928,12.167
56038,134.285,25.957,12.222
56071,134.282,25.954,12.251
56105,134.332,25.977,12.278
56138,134.42,26.017,12.316
56171,134.459,26.013,12.313
56205,134.508,26.04,12.333
56238,134.417,25.948,12.257
56271,134.46,25.986,12.292
56305,134.521,26.009,12.295
56338,134.634,26.071,12.327
56371,134.891,26.235,12.435
56405,134.99,26.292,12.421
56438,135.176,26.398,12.471
56471,135.31,26.471,12.499
56504,135.316,26.44,12.436
56538,135.437,26.508,12.482
56571,135.509,26.552,12.479
56603,135.67,26.647,12.531
56638,135.873,26.78,12.585
56671,135.917,26.763,12.555
56704,135.618,26.498,12.332
56738,134.944,26.02,12.028
56771,134.294,25.666,11.887
56804,134.041,25.634,11.969
56838,134.061,25.698,12.069
56871,134.1,25.739,12.132
56904,134.224,25.818,12.21
56938,134.31,25.86,12.237
56971,134.434,25.92,12.259
57004,134.47,25.928,12.247
57038,134.428,25.87,12.204
57071,134.38,25.831,12.184
57103,134.516,25.923,12.24
57137,134.633,25.959,12.234
57171,134.788,26.014,12.28
57204,134.988,26.085,12.305
57237,135.145,26.151,12.321
57271,135.288,26.184,12.324
57304,135.446,26.27,12.354
57337,135.525,26.302,12.35
57371,135.634,26.363,12.366
57404,135.73,26.407,12.375
57437,135.798,26.413,12.356
57471,135.949,26.512,12.395
57504,135.999,26.514,12.358
57537,135.724,26.267,12.175
57571,134.916,25.753,11.872
57603,134.186,25.366,11.711
57637,133.847,25.248,11.747
57671,133.778,25.272,11.853
57704,133.802,25.294,11.901
57737,133.846,25.311,11.949
57770,133.917,25.33,11.975
57804,133.98,25.333,11.972
57837,134.044,25.372,12.004
57870,133.996,25.349,11.964
57904,134.033,25.376,11.984
57937,134.153,25.464,12.04
57970,134.389,25.622,12.137
58004,134.527,25.67,12.129
58037,134.668,25.723,12.154
58070,134.839,25.777,12.149
58103,134.946,25.785,12.132
58137,134.906,25.686,12.03
58170,134.923,25.629,11.999
58204,134.974,25.585,11.966
58237,134.981,25.522,11.914
58270,135.039,25.472,11.883
58304,135.188,25.498,11.897
58337,135.309,25.496,11.896
58370,135.182,25.329,11.773
58404,134.513,24.86,11.461
58437,133.737,24.409,11.238
58470,133.318,24.23,11.245
58503,133.235,24.259,11.378
58537,133.26,24.304,11.448
58570,133.348,24.368,11.533
58603,133.405,24.391,11.553
58637,133.549,24.471,11.622
58670,133.614,24.478,11.585
58703,133.639,24.483,11.594
58737,133.74,24.571,11.65
58770,133.744,24.543,11.593
58803,133.855,24.594,11.625
58837,134.04,24.667,11.657
58870,134.112,24.642,11.639
58903,134.229,24.667,11.638
58937,134.428,24.778,11.701
58970,134.624,24.894,11.749
59003,134.803,25.046,11.811
59037,134.958,25.143,11.846
59070,135.127,25.247,11.884
59103,135.221,25.305,11.885
59136,135.31,25.343,11.887
59170,135.433,25.421,11.922
59203,135.559,25.495,11.946
59236,135.27,25.306,11.8
59270,134.547,24.89,11.534
59303,133.966,24.634,11.462
59335,133.802,24.651,11.566
59370,133.832,24.748,11.693
59403,133.924,24.853,11.783
59436,134.058,24.967,11.85
59470,134.174,25.045,11.889
59503,134.273,25.071,11.894
59536,134.236,25.019,11.841
59570,134.09,24.88,11.761
59603,134.172,24.954,11.834
59636,134.291,25.044,11.873
59670,134.491,25.181,11.957
59703,134.65,25.277,11.996
59736,134.826,25.399,12.027
59769,134.98,25.474,12.046
59803,135.051,25.501,12.045
59835,135.24,25.624,12.106
59869,135.357,25.713,12.132
59903,135.477,25.81,12.168
59936,135.647,25.948,12.221
59969,135.777,26.052,12.268
60003,135.791,26.038,12.218
60036,135.282,25.666,11.955
60069,134.512,25.204,11.693
60103,134.022,24.989,11.647
60136,133.913,25.034,11.771
60169,133.941,25.094,11.854
60203,134.044,25.162,11.922
60236,134.193,25.278,12.019
60269,134.347,25.36,12.047
60303,134.438,25.411,12.056
60335,134.4,25.376,12.016
60369,134.437,25.417,12.038
60402,134.503,25.463,12.062
60436,134.66,25.583,12.145
60469,134.864,25.7,12.186
60502,135.039,25.799,12.22
60536,135.167,25.87,12.234
60569,135.371,25.995,12.297
60602,135.436,25.994,12.255
60636,135.508,25.997,12.247
60669,135.573,26.019,12.243
60702,135.705,26.089,12.268
60736,135.786,26.115,12.263
60769,135.861,26.127,12.248
60802,135.831,26.064,12.199
60835,135.303,25.659,11.916
60869,134.428,25.103,11.614
60902,133.897,24.865,11.575
60936,133.717,24.874,11.679
60969,133.71,24.943,11.789
61002,133.767,24.992,11.853
61035,133.802,25.011,11.873
61069,133.859,25.026,11.882
61102,133.927,25.046,11.906
61135,133.957,25.056,11.884
61169,133.918,25.023,11.869
61202,133.862,24.961,11.831
61235,133.956,25.005,11.872
61269,134.083,25.056,11.887
61302,134.191,25.087,11.883
61335,134.304,25.127,11.893
61369,134.415,25.148,11.891
61402,134.422,25.055,11.797
61435,134.373,24.924,11.711
61469,134.329,24.771,11.614
61502,134.428,24.778,11.631
61535,134.568,24.82,11.663
61569,134.746,24.919,11.709
61602,134.908,25.02,11.755
61635,134.596,24.765,11.563
61669,133.723,24.205,11.224
61702,133.001,23.842,11.074
61735,132.718,23.778,11.153
61768,132.684,23.836,11.267
61802,132.758,23.91,11.376
61835,132.776,23.912,11.401
61868,132.903,23.986,11.449
61902,132.97,24.023,11.469
61935,132.953,23.977,11.42
61968,132.954,23.978,11.424
62002,132.982,23.958,11.425
62035,133.045,23.997,11.443
62068,133.259,24.133,11.534
62102,133.439,24.243,11.577
62135,133.66,24.379,11.641
62168,133.826,24.472,11.667
62202,133.956,24.541,11.674
62235,134.09,24.604,11.678
62268,134.183,24.656,11.691
62302,134.177,24.594,11.608
62335,134.165,24.516,11.538
62368,134.134,24.364,11.424
62401,134.174,24.242,11.347
62435,133.948,23.933,11.143
62468,133.068,23.187,10.681
62501,132.148,22.538,10.384
62535,131.6,22.173,10.288
62568,131.44,22.063,10.332
62601,131.459,22.022,10.385
62635,131.532,22.017,10.425
62668,131.62,22.0,10.432
62701,131.68,21.939,10.404
62735,131.869,21.973,10.431
62768,131.829,21.879,10.361
62801,131.742,21.738,10.251
62835,131.774,21.68,10.225
62868,131.678,21.439,10.05
62901,131.753,21.323,10.009
62935,131.878,21.263,9.983
62968,132.012,21.244,9.96
63001,132.305,21.446,10.111
63034,132.555,21.643,10.21
63068,132.792,21.895,10.334
63101,132.95,22.098,10.405
63134,133.13,22.321,10.515
63168,133.334,22.562,10.627
63201,133.393,22.62,10.605
63234,132.985,22.385,10.419
63268,132.176,21.961,10.167
63301,131.522,21.682,10.049
63334,131.265,21.63,10.117
63368,131.199,21.644,10.184
63401,131.223,21.63,10.215
63434,131.245,21.57,10.186
63468,131.396,21.601,10.231
63501,131.461,21.583,10.208
63534,131.563,21.701,10.291
63568,131.579,21.753,10.315
63601,131.801,22.111,10.553
63634,131.857,22.171,10.532
63667,131.949,22.25,10.568
63701,132.074,22.295,10.555
63734,132.219,22.339,10.58
63767,132.318,22.331,10.54
63801,132.488,22.386,10.561
63834,132.552,22.372,10.525
63867,132.719,22.445,10.565
63901,132.892,22.533,10.611
63934,132.999,22.565,10.599
63967,132.665,22.309,10.419
64001,131.93,21.873,10.145
64034,131.362,21.661,10.094
64067,131.186,21.766,10.238
64101,131.118,21.823,10.318
64134,131.251,21.919,10.419
64167,131.357,21.989,10.464
64201,131.601,22.17,10.587
64234,131.691,22.221,10.58
64267,131.653,22.228,10.564
64300,131.584,22.225,10.554
64334,131.547,22.233,10.561
64367,131.641,22.296,10.599
64400,131.77,22.376,10.644
64434,131.832,22.372,10.602
64467,131.966,22.406,10.628
64500,132.113,22.422,10.639
64534,132.069,22.293,10.528
64567,132.138,22.294,10.53
64600,132.219,22.3,10.541
64634,132.28,22.305,10.535
64667,132.052,22.169,10.433
64700,131.383,21.811,10.189
64734,130.825,21.656,10.171
64767,130.519,21.672,10.265
64800,130.594,21.895,10.467
64834,130.885,22.243,10.715
64867,131.148,22.514,10.858
64900,131.354,22.692,10.952
64933,131.362,22.709,10.913
64967,131.32,22.747,10.918
65000,131.277,22.816,10.958
65033,131.219,22.898,11.001
65067,131.331,23.116,11.132
65100,131.508,23.304,11.226
65133,131.626,23.408,11.274
65167,131.827,23.565,11.329
65200,132.086,23.778,11.447
65233,132.243,23.957,11.529
65267,132.413,24.085,11.566
65300,132.539,24.162,11.583
65333,132.514,24.101,11.507
65367,132.269,23.968,11.398
65400,131.46,23.527,11.112
65433,130.701,23.14,10.908
65467,130.369,23.034,10.971
65500,130.391,23.122,11.117
65533,130.477,23.247,11.235
65566,130.657,23.419,11.351
65600,130.834,23.577,11.461
65633,130.971,23.726,11.531
65666,131.049,23.834,11.561
65700,130.939,23.778,11.513
65733,130.881,23.739,11.491
65766,130.908,23.718,11.476
65800,131.075,23.793,11.521
65833,131.303,23.919,11.607
65866,131.502,24.012,11.644
65900,131.75,24.183,11.73
65933,131.967,24.333,11.807
65966,132.068,24.373,11.782
66000,132.21,24.464,11.815
66033,132.285,24.501,11.812
66066,132.258,24.466,11.759
66100,131.778,24.151,11.536
66133,130.814,23.565,11.169
66166,130.179,23.305,11.114
66200,129.914,23.286,11.199
66233,129.839,23.333,11.314
66266,129.829,23.344,11.37
66299,129.859,23.369,11.398
66333,129.86,23.33,11.382
66366,129.992,23.394,11.436
66399,130.009,23.353,11.389
66433,130.062,23.393,11.435
66466,130.165,23.459,11.465
66499,130.217,23.497,11.481
66533,130.493,23.695,11.606
66566,130.647,23.773,11.609
66599,130.882,23.912,11.67
66633,131.019,23.96,11.688
66666,131.232,24.076,11.726
66699,131.36,24.12,11.727
66733,131.513,24.197,11.731
66766,131.567,24.144,11.682
66799,131.561,24.031,11.576
66833,131.629,23.955,11.526
66866,131.396,23.685,11.324
66899,130.639,23.131,10.985
66932,129.785,22.635,10.716
66966,129.448,22.573,10.792
66999,129.457,22.752,10.981
67032,129.579,22.938,11.153
67066,129.593,22.994,11.179
67099,129.609,23.009,11.183
67132,129.823,23.159,11.287
67166,130.035,23.296,11.348
67199,130.17,23.374,11.378
67232,130.201,23.356,11.348
67266,130.34,23.415,11.379
67299,130.44,23.445,11.383
67332,130.643,23.531,11.407
67366,130.911,23.7,11.501
67399,131.059,23.731,11.477
67432,131.257,23.805,11.503
67466,131.454,23.859,11.513
67499,131.617,23.894,11.5
67532,131.814,23.975,11.53
67565,131.998,24.067,11.575
67599,132.257,24.219,11.64
67632,132.422,24.29,11.646
67665,132.655,24.394,11.685
67699,132.862,24.482,11.698
67732,132.723,24.322,11.566
67764,132.092,23.9,11.27
67799,131.423,23.521,11.055
67832,131.133,23.451,11.085
67865,131.093,23.483,11.188
67899,131.12,23.523,11.231
67932,131.218,23.58,11.3
67965,131.238,23.561,11.277
67999,131.424,23.671,11.368
68032,131.526,23.72,11.372
68065,131.607,23.725,11.368
68099,131.681,23.743,11.359
68132,131.808,23.803,11.406
68165,131.883,23.805,11.38
68198,132.096,23.907,11.43
68232,132.274,23.965,11.447
68264,132.402,23.995,11.451
68298,132.648,24.121,11.518
68332,132.846,24.196,11.532
68365,133.022,24.267,11.549
68398,133.204,24.347,11.577
68432,133.401,24.446,11.61
68465,133.557,24.496,11.593
68498,133.713,24.574,11.625
68532,133.91,24.67,11.654
68565,134.105,24.765,11.695
68598,134.347,24.896,11.741
68632,134.493,24.938,11.734
68665,134.284,24.745,11.591
68698,133.589,24.253,11.242
68732,133.146,24.014,11.151
68764,132.964,23.952,11.19
68798,132.938,23.946,11.232
68831,132.964,23.932,11.252
68865,133.071,23.966,11.293
68898,133.141,23.981,11.299
68931,133.381,24.118,11.406
68965,133.48,24.167,11.422
68998,133.522,24.157,11.382
69031,133.546,24.131,11.341
69065,133.658,24.203,11.386
69098,133.763,24.255,11.422
69131,133.936,24.351,11.457
69165,134.106,24.463,11.51
69198,134.262,24.534,11.532
69231,134.443,24.649,11.578
69264,134.631,24.742,11.604
69298,134.729,24.776,11.599
69331,134.886,24.874,11.646
69365,135.081,24.997,11.708
69398,135.209,25.073,11.733
69431,135.425,25.192,11.789
69464,135.536,25.234,11.763
69498,135.662,25.321,11.792
69531,135.839,25.431,11.834
69564,136.057,25.575,11.9
69598,136.259,25.661,11.947
69631,136.151,25.543,11.825
69664,135.545,25.139,11.548
69698,135.103,24.928,11.454
69731,134.926,24.856,11.466
69764,134.978,24.911,11.555
69798,135.091,24.965,11.593
69831,135.191,25.025,11.649
69864,135.368,25.121,11.708
69898,135.47,25.165,11.724
69931,135.534,25.179,11.72
69964,135.557,25.176,11.708
69998,135.645,25.206,11.715
70031,135.644,25.174,11.69
70064,135.76,25.207,11.717
70098,135.87,25.248,11.716
70131,136.043,25.342,11.772
70164,136.166,25.395,11.792
70197,136.263,25.368,11.757
70231,136.316,25.331,11.698
70264,136.299,25.214,11.615
70297,136.252,25.043,11.495
70331,136.326,24.988,11.475
70364,136.422,24.964,11.452
70397,136.529,24.991,11.474
70431,136.684,25.097,11.534
70464,136.883,25.27,11.623
70496,137.013,25.37,11.654
70531,137.116,25.387,11.64
70564,137.022,25.215,11.497
70597,136.549,24.843,11.248
70631,136.014,24.487,11.053
70664,135.781,24.336,11.032
70697,135.735,24.292,11.064
70731,135.823,24.303,11.11
70764,135.924,24.301,11.129
70797,136.035,24.32,11.141
70830,136.065,24.239,11.076
70864,136.175,24.252,11.098
70897,136.204,24.233,11.091
70930,136.293,24.304,11.125
70964,136.422,24.447,11.198
70996,136.63,24.665,11.339
71030,136.732,24.757,11.369
71064,136.903,24.868,11.395
71097,136.956,24.889,11.378
71130,137.113,24.988,11.428
71164,137.201,25.031,11.423
71197,137.391,25.131,11.485
71230,137.51,25.178,11.484
71264,137.582,25.2,11.496
71297,137.592,25.162,11.434
71330,137.673,25.196,11.459
71364,137.842,25.324,11.517
71397,138.023,25.439,11.577
71430,138.179,25.549,11.604
71463,138.373,25.657,11.662
71496,138.372,25.624,11.616
71530,137.944,25.307,11.412
71563,137.383,24.979,11.232
71597,137.008,24.794,11.18
71630,136.91,24.771,11.226
71663,136.938,24.778,11.286
71697,136.995,24.766,11.313
71730,137.037,24.735,11.303
71763,137.113,24.715,11.29
71797,137.164,24.73,11.316
71830,137.122,24.693,11.29
71863,137.152,24.742,11.333
71897,137.252,24.872,11.415
71930,137.409,25.043,11.511
71963,137.607,25.239,11.635
71996,137.763,25.405,11.721
72030,137.956,25.609,11.823
72063,138.016,25.666,11.827
72096,138.054,25.685,11.811
72130,138.16,25.785,11.854
72163,138.168,25.764,11.82
72196,138.177,25.748,11.786
72230,138.189,25.733,11.764
72263,138.275,25.769,11.791
72296,138.359,25.807,11.808
72330,138.405,25.786,11.772
72363,138.348,25.65,11.664
72396,138.014,25.337,11.476
72430,137.283,24.818,11.186
72463,136.805,24.604,11.12
72496,136.626,24.563,11.19
72530,136.637,24.621,11.311
72563,136.61,24.584,11.309
72596,136.73,24.67,11.403
72630,136.876,24.777,11.477
72663,136.94,24.833,11.486
72696,136.926,24.845,11.502
72728,136.823,24.814,11.457
72763,136.808,24.814,11.473
72796,136.728,24.744,11.405
72829,136.801,24.792,11.463
72863,136.854,24.819,11.483
72896,136.939,24.833,11.485
72929,137.021,24.872,11.509
72963,137.075,24.882,11.496
72996,137.187,24.925,11.532
73029,137.262,24.979,11.538
73063,137.353,25.028,11.563
73096,137.391,25.044,11.546
73129,137.407,25.046,11.54
73163,137.368,24.998,11.497
73196,137.191,24.863,11.411
73228,136.478,24.395,11.109
73263,135.937,24.148,11.042
73296,135.738,24.124,11.12
73329,135.71,24.15,11.193
73362,135.723,24.15,11.238
73396,135.795,24.186,11.261
73429,135.856,24.199,11.285
73462,135.864,24.173,11.268
73496,135.852,24.156,11.276
73529,135.721,24.055,11.208
73562,135.747,24.094,11.256
73596,135.717,24.091,11.263
73629,135.822,24.174,11.308
73662,135.903,24.229,11.352
73696,135.999,24.287,11.361
73728,136.06,24.294,11.358
73762,136.135,24.344,11.379
73796,136.256,24.424,11.409
73829,136.334,24.477,11.427
73862,136.444,24.538,11.451
73896,136.438,24.519,11.419
73929,136.382,24.443,11.357
73962,135.859,24.076,11.118
73996,135.116,23.639,10.886
74029,134.652,23.452,10.872
74062,134.53,23.463,10.981
74095,134.617,23.567,11.116
74129,134.703,23.617,11.146
74162,134.778,23.654,11.178
74195,134.865,23.71,11.209
74228,134.881,23.71,11.208
74262,134.704,23.594,11.112
74295,134.621,23.591,11.126
74329,134.671,23.674,11.184
74362,134.755,23.759,11.235
74395,134.918,23.9,11.324
74429,135.059,24.024,11.387
74462,135.19,24.116,11.409
74495,135.358,24.208,11.433
74529,135.404,24.238,11.421
74562,135.477,24.27,11.433
74595,135.57,24.313,11.429
74629,135.577,24.279,11.395
74662,135.297,24.064,11.228
74695,134.701,23.697,11.019
74728,134.013,23.347,10.859
74762,133.644,23.249,10.905
74795,133.604,23.33,11.033
74828,133.69,23.436,11.148
74862,133.807,23.527,11.211
74895,133.953,23.589,11.264
74928,134.004,23.579,11.243
74962,133.936,23.509,11.179
74995,133.866,23.462,11.145
75028,133.841,23.471,11.154
75062,133.829,23.462,11.158
75095,133.872,23.502,11.185
75128,133.979,23.565,11.216
75162,134.109,23.647,11.254
75195,134.22,23.708,11.274
75228,134.343,23.76,11.29
75262,134.523,23.882,11.339
75295,134.554,23.881,11.305
75328,134.66,23.962,11.352
75361,134.751,24.012,11.36
75395,134.732,23.985,11.31
75428,134.321,23.7,11.115
75460,133.547,23.236,10.86
75495,132.913,22.92,10.738
75528,132.754,22.922,10.835
75561,132.795,22.999,10.962
75595,132.901,23.083,11.032
75628,133.098,23.206,11.119
75661,133.227,23.267,11.139
75695,133.299,23.317,11.152
75728,133.231,23.265,11.092
75761,133.175,23.253,11.079
75795,133.151,23.27,11.1
75828,133.252,23.344,11.146
75861,133.317,23.365,11.163
75895,133.506,23.499,11.223
75928,133.649,23.569,11.246
75960,133.772,23.626,11.25
75994,133.924,23.702,11.266
76028,134.115,23.815,11.323
76061,134.245,23.89,11.341
76094,134.372,23.95,11.353
76128,134.181,23.801,11.232
76161,133.538,23.394,10.972
76194,132.831,23.017,10.786
76228,132.507,22.938,10.82
76261,132.508,23.031,10.951
76294,132.623,23.133,11.045
76328,132.724,23.154,11.083
76361,132.832,23.187,11.094
76394,132.988,23.274,11.134
76428,132.964,23.228,11.071
76460,132.9,23.191,11.056
76494,132.907,23.216,11.054
76528,132.994,23.311,11.117
76561,133.122,23.382,11.153
76594,133.336,23.522,11.231
76627,133.573,23.666,11.313
76661,133.771,23.783,11.336
76694,133.932,23.877,11.357
76727,134.077,23.957,11.375
76761,134.215,24.053,11.407
76794,134.382,24.163,11.454
76827,134.425,24.151,11.412
76861,134.251,24.006,11.295
76894,133.431,23.456,10.954
76927,132.627,23.047,10.756
76960,132.372,23.054,10.88
76994,132.415,23.157,11.031
77027,132.519,23.25,11.121
77061,132.594,23.296,11.156
77094,132.778,23.399,11.22
77127,132.903,23.467,11.244
77161,132.931,23.469,11.227
77194,132.874,23.45,11.209
77227,132.94,23.491,11.216
77260,133.014,23.521,11.244
77294,133.149,23.605,11.283
77327,133.331,23.712,11.341
77360,133.491,23.778,11.352
77394,133.627,23.832,11.351
77427,133.804,23.924,11.406
77460,133.889,23.957,11.387
77494,133.999,24.027,11.394
77527,134.125,24.097,11.422
77560,134.213,24.153,11.428
77594,134.312,24.185,11.433
77627,134.0,23.951,11.27
77660,133.229,23.477,10.983
77694,132.538,23.145,10.851
77727,132.319,23.135,10.971
77760,132.233,23.12,11.016
77794,132.335,23.185,11.103
77827,132.421,23.219,11.13
77860,132.528,23.254,11.155
77893,132.622,23.293,11.18
77927,132.639,23.278,11.18
77960,132.582,23.23,11.124
77993,132.628,23.263,11.152
78027,132.765,23.36,11.227
78060,132.926,23.447,11.273
78093,133.04,23.486,11.264
78127,133.286,23.639,11.349
78160,133.38,23.677,11.349
78193,133.534,23.745,11.358
78227,133.669,23.811,11.369
78260,133.756,23.845,11.376
78293,133.827,23.881,11.354
78327,133.972,23.972,11.409
78360,134.077,24.008,11.412
78393,134.239,24.099,11.44
78427,134.245,24.054,11.386
78460,133.745,23.692,11.151
78493,132.853,23.159,10.828
78527,132.272,22.911,10.782
78560,132.097,22.922,10.898
78593,132.124,22.973,11.004
78626,132.218,23.062,11.088
78660,132.29,23.086,11.124
78693,132.365,23.118,11.123
78726,132.505,23.193,11.174
78760,132.559,23.224,11.178
78793,132.53,23.188,11.151
78826,132.569,23.229,11.169
78860,132.675,23.279,11.207
78893,132.877,23.395,11.271
78926,132.997,23.427,11.27
78960,133.154,23.509,11.305
78993,133.324,23.59,11.331
79026,133.481,23.663,11.34
79060,133.527,23.649,11.312
79093,133.651,23.724,11.34
79126,133.768,23.758,11.346
79160,133.885,23.812,11.357
79193,134.027,23.882,11.39
79226,134.209,23.974,11.422
79259,134.263,23.957,11.386
79293,133.81,23.625,11.17
79326,132.976,23.141,10.868
79359,132.378,22.873,10.785
79393,132.179,22.875,10.882
79426,132.166,22.906,10.975
79459,132.248,22.983,11.066
79493,132.334,23.024,11.106
79526,132.461,23.073,11.137
79559,132.564,23.123,11.165
79593,132.57,23.118,11.125
79626,132.571,23.109,11.114
79659,132.597,23.13,11.121
79693,132.715,23.208,11.167
79726,132.895,23.303,11.211
79759,133.028,23.366,11.237
79793,133.187,23.42,11.241
79826,133.311,23.468,11.265
79859,133.448,23.521,11.275
79892,133.618,23.598,11.305
79926,133.695,23.622,11.283
79959,133.78,23.678,11.301
79992,133.897,23.714,11.302
80026,134.038,23.772,11.324
80059,134.191,23.869,11.38
80092,134.29,23.911,11.375
80126,134.049,23.722,11.222
80159,133.175,23.159,10.86
80192,132.44,22.785,10.693
80226,132.226,22.792,10.826
80259,132.177,22.838,10.922
80292,132.278,22.919,11.014
80326,132.308,22.928,11.025
80359,132.425,22.985,11.057
80392,132.583,23.072,11.119
80426,132.592,23.06,11.101
80459,132.585,23.037,11.062
80492,132.683,23.113,11.117
80525,132.846,23.237,11.196
80559,133.028,23.343,11.24
80592,133.12,23.378,11.224
80625,133.241,23.42,11.229
80659,133.352,23.439,11.216
80692,133.45,23.452,11.214
80725,133.464,23.423,11.175
80759,133.523,23.424,11.159
80792,133.572,23.422,11.122
80825,133.63,23.414,11.113
80859,133.681,23.368,11.064
80892,133.781,23.393,11.069
80925,133.88,23.369,11.053
80959,133.411,22.997,10.8
80992,132.596,22.487,10.501
81025,132.062,22.28,10.454
81059,131.877,22.321,10.586
81092,132.044,22.554,10.798
81125,132.245,22.757,10.944
81158,132.374,22.888,11.01
81192,132.551,23.068,11.11
81225,132.705,23.185,11.151
81258,132.678,23.189,11.13
81292,132.609,23.136,11.076
81325,132.626,23.135,11.073
81358,132.639,23.106,11.035
81392,132.755,23.143,11.051
81425,132.95,23.283,11.132
81458,133.275,23.501,11.258
81492,133.553,23.742,11.378
81525,133.735,23.916,11.438
81558,133.988,24.2,11.582
81592,133.982,24.196,11.517
81625,134.014,24.219,11.508
81658,134.137,24.33,11.545
81692,134.287,24.433,11.572
81725,134.138,24.304,11.462
81758,133.351,23.67,11.043
81791,132.405,22.994,10.67
81825,132.004,22.805,10.679
81858,132.252,23.158,11.036
81891,132.295,23.224,11.089
81925,132.427,23.339,11.187
81958,132.585,23.474,11.255
81991,132.663,23.545,11.27
82025,132.669,23.593,11.264
82058,132.66,23.619,11.273
82091,132.608,23.591,11.218
82125,132.737,23.703,11.279
82158,132.896,23.802,11.323
82191,133.058,23.885,11.359
82225,133.27,23.997,11.391
82258,133.455,24.093,11.411
82291,133.597,24.154,11.427
82325,133.635,24.11,11.348
82358,133.681,24.085,11.327
82391,133.784,24.1,11.331
82424,133.966,24.202,11.397
82458,134.121,24.288,11.441
82491,133.911,24.15,11.312
82524,133.169,23.703,11.025
82558,132.515,23.382,10.89
82591,132.225,23.305,10.942
82624,132.218,23.381,11.063
82658,132.28,23.445,11.133
82691,132.397,23.556,11.235
82724,132.559,23.657,11.278
82758,132.669,23.692,11.291
82791,132.718,23.681,11.269
82824,132.669,23.58,11.198
82858,132.607,23.483,11.139
